t,phi1,v1,phi2,v2,energy
0.0,2.797143583115226484,0.0,5.259134304651531977,0.0,13.367238337470666153
0.001,2.797143544709525716,-7.6805656290400237196e-05,5.259138464731804296,0.008320161442737906332,13.367238337470666155
0.002,2.7971434295268947123,-0.00015354237026326667839,5.259150944978009737,0.016640333662257700672,13.367238337470666156
0.003,2.7971432376707456857,-0.0002301412029694779997,5.259171745406312651,0.024960527433151374732,13.367238337470666155
0.004,2.7971429693134267109,-0.00030653322219748049842,5.2592008660436499736,0.033280753525630053446,13.367238337470666156
0.005,2.7971426246962133003,-0.00038264950584392872422,5.259238306927725748,0.041601022703330875988,13.367238337470666157
0.006,2.7971422041292966106,-0.00045842114528655461445,5.2592840681070034533,0.04992134572112065379,13.3672383374706661525
0.007,2.7971417079917682742,-0.0005337792487600085128,5.2593381496406961307,0.058241733322895230745,13.367238337470666152
0.008,2.7971411367316018515,-0.0006086549447354159003,5.259400551598754315,0.06656219623937347037,13.367238337470666156
0.009000000000000001,2.7971404908656309046,-0.0006829793853043942846,5.2594712740618517494,0.0748827451858847942,13.367238337470666158
0.010000000000000002,2.7971397709795236815,-0.00075668374956827531236,5.259550317121368888,0.08320339086014919508,13.367238337470666161
0.011000000000000003,2.7971389777277544091,-0.00082969924703327807003,5.25963768087937417,0.09152414394004864823,13.367238337470666166
0.012000000000000004,2.7971381118335711896,-0.0009019571210123803945,5.2597333654486030674,0.09984501508138884228,13.367238337470666172
0.013000000000000005,2.7971371740889604876,-0.00097338865203463606405,5.259837370952434882,0.108166014915650151436,13.367238337470666174
0.014000000000000005,2.7971361653546082072,-0.0010439251612626869262,5.2599496975248672924,0.11648715404772676892,13.367238337470666173
0.015000000000000006,2.7971350865598573463,-0.0011134980139192202456,5.2600703453104886305,0.12480844305365292083,13.367238337470666178
0.016000000000000007,2.7971339387026622183,-0.0011820386227231229407,5.2601993144644478805,0.13312989247831507815,13.367238337470666182
0.017000000000000008,2.797132722849539234,-0.0012494784513360858918,5.260336605152422381,0.1414515128331490836,13.3672383374706661785
0.01800000000000001,2.797131440135514231,-0.0013157490178204130826,5.260482217550583214,0.14977331459382110815,13.367238337470666182
0.01900000000000001,2.7971300917640663389,-0.0013807818981087920431,5.260636151845558271,0.15809530819789135112,13.367238337470666182
0.02000000000000001,2.7971286790070683697,-0.0014445087294867839256,5.2607984082343929705,0.16641750404245939564,13.367238337470666186
0.02100000000000001,2.7971272032047237162,-0.0015068612140887934283,5.260968986924508612,0.1747399124817901297,13.367238337470666187
0.022000000000000013,2.7971256657654997508,-0.001567771122408280881,5.2611478881336583456,0.18306254382491914138,13.3672383374706661855
0.023000000000000013,2.7971240681660577052,-0.0016271702968229809028,5.261335112089880736,0.19138540833323649475,13.367238337470666182
0.024000000000000014,2.7971224119511790159,-0.0016849906551358943344,5.2615306590314508996,0.1997085162180477911,13.367238337470666188
0.025000000000000015,2.797120698733688122,-0.0017411641941328225244,5.2617345292068291927,0.2080318776381114176,13.367238337470666188
0.026000000000000016,2.7971189301943716974,-0.0017956229931572154771,5.26194672287460742,0.21635550269715088431,13.367238337470666188
0.027000000000000017,2.7971171080818942967,-0.0018482992177031079861,5.2621672403034525454,0.224679401441341147,13.367238337470666185
0.028000000000000018,2.7971152342127104016,-0.0018991251230269205529,5.262396081772047877,0.23300358385676781171,13.367238337470666183
0.02900000000000002,2.7971133104709728439,-0.001948033057778904634,5.2626332475690316935,0.24132805986685811407,13.367238337470666181
0.03000000000000002,2.797111338808437587,-0.0019949554676550147065,5.2628787379929332915,0.24965283932978256434,13.3672383374706661785
0.03100000000000002,2.7971093212443648465,-0.0020398248990699925734,5.2631325533521064147,0.25797793203582614579,13.367238337470666179
0.03200000000000002,2.7971072598654165248,-0.0020825740028524524256,5.263394693964660043,0.26630334770472795204,13.367238337470666177
0.03300000000000002,2.7971051568255499407,-0.002123135537962758381,5.2636651601583864996,0.27462909598298814587,13.367238337470666181
0.03400000000000002,2.7971030143459078294,-0.0021614423752344894637,5.263943952270686857,0.28295518644114111878,13.367238337470666182
0.035000000000000024,2.7971008347147045866,-0.0021974275011402903673,5.264231070648493587,0.29128162857099372852,13.3672383374706661785
0.036000000000000025,2.7970986202871087382,-0.0022310240215829098484,5.2645265156481904417,0.2996084317828274878,13.367238337470666177
0.037000000000000026,2.797096373485121603,-0.002262165165712232065,5.2648302876355295116,0.30793560540256357462,13.3672383374706661785
0.03800000000000003,2.7970940967974521256,-0.0022907842897691099091,5.265142386985545433,0.3162631586688895321,13.36723833747066618
0.03900000000000003,2.797091792779387852,-0.0023168148809568130612,5.2654628140824667015,0.32459110073034652108,13.367238337470666174
0.04000000000000003,2.7970894640526620207,-0.0023401905613409073439,5.26579156931962405,0.33291944064237598684,13.36723833747066618
0.04100000000000003,2.7970871133053167373,-0.0023608450917783858124,5.2661286530993558597,0.3412481873643245967,13.367238337470666181
0.04200000000000003,2.7970847432915622063,-0.0023787123758768760591,5.266474065832910545,0.3495773497564063026,13.36723833747066618
0.04300000000000003,2.797082356831631988,-0.0023937264639847522367,5.266827807940345886,0.35790693657662037884,13.367238337470666184
0.04400000000000003,2.7970799568116342495,-0.00240582155721298447,5.267189879850425254,0.36623695647762428144,13.367238337470666183
0.04500000000000003,2.7970775461833989775,-0.0024149320114895625233,5.267560282000510686,0.37456741800356017214,13.367238337470666183
0.046000000000000034,2.7970751279643211206,-0.0024209923416473349164,5.2679390148364527643,0.3828983295868339464,13.367238337470666182
0.047000000000000035,2.7970727052371996259,-0.0024239372255461090151,5.2683260788124772474,0.39122969954484560035,13.367238337470666182
0.048000000000000036,2.7970702811500723363,-0.0024237015082298620848,5.2687214743910684113,0.3995615360766697687,13.3672383374706661785
0.04900000000000004,2.7970678589160467141,-0.0024202202061199177823,5.2691252020428490407,0.40789384725968526102,13.367238337470666176
0.05000000000000004,2.7970654418131263492,-0.002413428511244947123,5.2695372622464570276,0.41622664104615241984,13.367238337470666173
0.05100000000000004,2.7970630331840332235,-0.0024032617955086576189,5.269957655488418519,0.42455992525973712068,13.367238337470666173
0.05200000000000004,2.7970606364360256848,-0.0023896556149960389127,5.2703863822630175615,0.43289370759198022909,13.367238337470666179
0.05300000000000004,2.7970582550407120954,-0.0023725457143190380397,5.2708234430721621886,0.44122799559871132686,13.367238337470666184
0.05400000000000004,2.797055892533860118,-0.0023518680310025422029,5.271268838425246893,0.449562796696405514,13.367238337470666186
0.05500000000000004,2.79705355251520159,-0.0023275586999115517716,5.271722568839011424,0.45789811815848209035,13.367238337470666187
0.05600000000000004,2.7970512386482329532,-0.002299554057720431197,5.272184634837395858,0.46623396711154391545,13.367238337470666191
0.057000000000000044,2.7970489546600111924,-0.0022677906474251303586,5.2726550369513918775,0.47457035053155624172,13.367238337470666189
0.058000000000000045,2.7970467043409452394,-0.0022322052228992739158,5.2731337757188901953,0.48290727523996381112,13.367238337470666191
0.059000000000000045,2.7970444915445827983,-0.0021927347534950211915,5.273620851684524067,0.49124474789974500191,13.367238337470666193
0.060000000000000046,2.797042320187392547,-0.0021493164286896042227,5.274116265399508827,0.49958277501140180716,13.367238337470666192
0.06100000000000005,2.797040194248541671,-0.0021018876627784566302,5.2746200174214773757,0.50792136290888442295,13.367238337470666193
0.06200000000000005,2.797038117769668677,-0.00205038609961585109,5.275132108314311566,0.5162605177554492193,13.367238337470666191
0.06300000000000004,2.7970360948546514458,-0.0019947496174039683015,5.2756525386479694094,0.5246002455394488629,13.3672383374706661915
0.06400000000000004,2.797034129669370467,-0.001934916333531325493,5.2761813089983080373,0.53294055207005335673,13.3672383374706661915
0.06500000000000004,2.7970322264414672145,-0.0018708246094614976701,5.2767184199469023514,0.54128144297290075606,13.367238337470666188
0.06600000000000004,2.7970303894600976047,-0.0018024130556730699387,5.2772638720808592856,0.54962292368567631774,13.36723833747066619
0.06700000000000005,2.79702862307568049,-0.0017296205366517644461,5.277817665992627614,0.55796499945361883386,13.367238337470666194
0.06800000000000005,2.7970269316996411336,-0.0016523861759356906252,5.278379802279803226,0.5663076753249528981,13.3672383374706661985
0.06900000000000005,2.7970253198041496114,-0.0015706493612146726093,5.278950281544929798,0.5746509561462458463,13.367238337470666198
0.07000000000000005,2.7970237919218540895,-0.0014843497494846128243,5.27952910439529478,0.58299484655768811254,13.367238337470666196
0.07100000000000005,2.7970223526456089154,-0.0013934272722578558914,5.2801162714427206293,0.591339350988295733,13.367238337470666194
0.07200000000000005,2.797021006628197474,-0.0012978221408305221721,5.280711783303351203,0.5996844736510337301,13.367238337470666195
0.07300000000000005,2.797019758582049746,-0.001197474851607785277,5.2813156405974332366,0.60803021853785910243,13.367238337470666192
0.07400000000000005,2.797018613278954511,-0.0010923261914880730131,5.2819278439490928213,0.61637658941468214286,13.367238337470666197
0.07500000000000005,2.7970175755497661382,-0.0009823172433071762357,5.2825483939861068057,0.6247235898162448035,13.367238337470666198
0.07600000000000005,2.797016650284105901,-0.0008673893913432550846,5.283177291339669031,0.63307122304091482164,13.367238337470666194
0.07700000000000005,2.797015842430057756,-0.0007474843268837370083,5.2838145366441513166,0.6414194921453943174,13.367238337470666191
0.07800000000000006,2.7970151569938585259,-0.00062254405385510589747,5.284460130536859114,0.6497683999393415695,13.367238337470666193
0.07900000000000006,2.797014599039582416,-0.00049251089451658645855,5.2851140736577817375,0.6581179489799046723,13.367238337470666198
0.08000000000000006,2.7970141736888198102,-0.00035732749521873275716,5.2857763666493370845,0.66646814156616577364,13.367238337470666198
0.08100000000000006,2.7970138861203502725,-0.00021693683222793451187,5.286447010156110751,0.67481897973349458847,13.3672383374706661985
0.08200000000000006,2.7970137415698096903,-7.128221761785938044e-05,5.28712600482458946,0.6831704652478098815,13.3672383374706662
0.08300000000000006,2.7970137453293514927,7.969269477114600897e-05,5.2878133513028887014,0.6915225995997476073,13.3672383374706662
0.08400000000000006,2.7970139027473018777,0.00023604390330366906446,5.288509050240474495,0.69987538399873439374,13.367238337470666201
0.08500000000000006,2.797014219227808971,0.00039782705245082679467,5.2892131022878791763,0.7082288193669650515,13.367238337470666202
0.08600000000000006,2.7970147002304858556,0.00056509742662080808904,5.2899255080964111145,0.7165829063332827894,13.367238337470666204
0.08700000000000006,2.7970153512700473939,0.00073790994391732289217,5.290646268317858259,0.72493764522696081177,13.367238337470666209
0.08800000000000006,2.7970161779159407709,0.00091631914982491435867,5.2913753836041854195,0.7332930360713839739,13.3672383374706662115
0.08900000000000007,2.7970171857919696881,0.0011003792108200862601,5.292112854607225175,0.7416490785776291648,13.3672383374706662176
0.09000000000000007,2.7970183805759121292,0.0012901439079071941753,5.2928586819783623157,0.75000577213794308856,13.367238337470666212
0.09100000000000007,2.7970197679991316247,0.0014856666300780454407,5.2936128663682117043,0.7583631158191161113,13.367238337470666214
0.09200000000000007,2.797021353846181936,0.0016870003676941493901,5.2943754084262894676,0.76672110835575083834,13.367238337470666214
0.09300000000000007,2.7970231439544050841,0.0018941977057905561703,5.295146308800677395,0.775079748143424085,13.367238337470666216
0.09400000000000007,2.7970251442135226421,0.0021073108173002193632,5.2959255681376804516,0.78343903323174090485,13.367238337470666216
0.09500000000000007,2.7970273605652202114,0.0023263914561978147311,5.2967131870814772848,0.7917989613172793331,13.3672383374706662176
0.09600000000000007,2.797029799002725002,0.002551490950561944696,5.297509166273763627,0.8001595297364245078,13.367238337470666222
0.09700000000000007,2.7970324655703764326,0.002782660195554655708,5.2983135063533884712,0.8085207354580908248,13.367238337470666222
0.09800000000000007,2.7970353663631896688,0.0030199496463171933153,5.299126207955982914,0.8168825750763307869,13.367238337470666224
0.09900000000000007,2.7970385075264120158,0.0032634093107809177595,5.299947271713581551,0.82524504480282920304,13.367238337470666221
0.10000000000000007,2.797041895255072077,0.0035130887423923010533,5.3007766982542363085,0.83360814045928139667,13.367238337470666221
0.10100000000000008,2.797045535793521596,0.0037690370327509249385,5.301614488201622593,0.8419718574696540801,13.367238337470666222
0.10200000000000008,2.7970494354349698923,0.0040313028041593978066,5.3024606421746376447,0.8503361908523275545,13.367238337470666219
0.10300000000000008,2.797053600521010802,0.004299934202084107627,5.3033151607869909714,0.8587011352121178935,13.367238337470666221
0.10400000000000008,2.7970580374411420338,0.0045749788875257271347,5.3041780446467867455,0.86706668473217777187,13.367238337470666221
0.10500000000000008,2.7970627526322768513,0.0048564840292983870705,5.3050492943560980403,0.87543283316577460133,13.367238337470666224
0.10600000000000008,2.7970677525782479875,0.0051444962962164331203,5.305928910510532781,0.8837995738279446364,13.367238337470666224
0.10700000000000008,2.7970730438093036995,0.005439061849187682301,5.30681689369879129,0.8921668995870217176,13.367238337470666223
0.10800000000000008,2.7970786329015958685,0.0057402263332120950645,5.3077132445022152923,0.9005348028560393197,13.367238337470666231
0.10900000000000008,2.797084526476660052,0.0060480348692847801747,5.3086179634943282696,0.9089032755840045783,13.367238337470666234
0.11000000000000008,2.7970907312008873905,0.0063625320462022506277,5.3095310512403670116,0.9172723092470429675,13.367238337470666235
0.11100000000000008,2.7970972537849882707,0.0066837619122708504455,5.3104525082968042533,0.925641894839412311,13.367238337470666235
0.11200000000000009,2.7971041009834476494,0.0070117679669162740377,5.3113823352108622605,0.9340120228643848074,13.367238337470666238
0.11300000000000009,2.7971112795939719342,0.0073465931521931022634,5.3123205325200172295,0.9423826833249957592,13.367238337470666244
0.11400000000000009,2.7971187964569273273,0.007688279844193281987,5.3132671007514943686,0.950753865714657699,13.367238337470666248
0.11500000000000009,2.797126658454769522,0.008036869844352479179,5.3142220404217535247,0.95912555900763861184,13.367238337470666253
0.11600000000000009,2.7971348725114646594,0.008392404370653239157,5.315185352035965223,0.9674977516494029594,13.36723833747066625
0.11700000000000009,2.7971434455919014321,0.008754924048723891753,5.316157036087476973,0.97587043154681421856,13.367238337470666255
0.11800000000000009,2.7971523847012942348,0.009124468902832143635,5.3171370930572697143,0.9842435860581976544,13.367238337470666255
0.11900000000000009,2.7971616968845772577,0.009501078346772305149,5.3181255234134042474,0.9926172019832620544,13.367238337470666259
0.12000000000000009,2.7971713892257894112,0.009884791174645104629,5.3191223276104575225,1.0009912655528791614,13.3672383374706662635
0.1210000000000001,2.7971814688474499772,0.01027564555152904911,5.3201275060889486306,1.0093657624187195495,13.367238337470666262
0.1220000000000001,2.7971919429099248776,0.0106736790040422971505,5.321141059274754359,1.0177406776427436999,13.3672383374706662635
0.1230000000000001,2.7972028186107834474,0.011078928410794016581,5.322162987578514167,1.0261159956865470393,13.367238337470666265
0.1240000000000001,2.7972141031841456064,0.011491429992724207772,5.323193291395024433,1.034491700400557721,13.367238337470666267
0.12500000000000008,2.7972258039000193123,0.011911219303330981485,5.324231971102621823,1.0428677750130859357,13.367238337470666266
0.12600000000000008,2.797237928063628186,0.012338331218784289243,5.325279027062555634,1.051244202119223551,13.367238337470666269
0.12700000000000009,2.7972504830147291914,0.012772799927925113914,5.3263344596183489657,1.0596209636695928996,13.367238337470666274
0.12800000000000009,2.7972634761269202588,0.013214658922149138377,5.3273982690951485605,1.0679980409589435374,13.367238337470666277
0.1290000000000001,2.797276914806937733,0.013663940985173921203,5.328470455799063164,1.0763754146145958194,13.36723833747066628
0.1300000000000001,2.7972908064939435292,0.0141206781826886198995,5.3295510200164902554,1.0847530645847301523,13.36723833747066628
0.1310000000000001,2.7973051586588018812,0.014584901851885314663,5.3306399620134309863,1.0931309701265207952,13.367238337470666282
0.1320000000000001,2.7973199788033455593,0.015056642590870998699,5.331737282034793176,1.101509109794113104,13.367238337470666287
0.1330000000000001,2.7973352744596314409,0.015535930247959315072,5.3328429803036822066,1.1098874614264431302,13.367238337470666291
0.1340000000000001,2.797351053189185314,0.016022793910841134688,5.3339570570206796584,1.1182660021348985022,13.367238337470666291
0.1350000000000001,2.797367322582235788,0.016517261895633085526,5.335079512363109521,1.1266447082908195388,13.367238337470666292
0.1360000000000001,2.797384090256937192,0.017019361735803159477,5.3362103464842918347,1.1350235555128395684,13.367238337470666293
0.1370000000000001,2.797401363858581339,0.017529120170972540346,5.3373495595127835836,1.1434025186540634424,13.367238337470666294
0.1380000000000001,2.7974191510587980264,0.018046563135592814564,5.3384971515516066883,1.1517815717890832617,13.367238337470666297
0.1390000000000001,2.7974374595547441536,0.018571715747497745121,5.3396531226774629343,1.1601606882008303558,13.367238337470666304
0.1400000000000001,2.7974562970682813278,0.01910460229632880903,5.340817472939935669,1.1685398403672625764,13.367238337470666306
0.1410000000000001,2.797475671345141831,0.019645246231833719457,5.3419902023606781003,1.1769189999478860001,13.367238337470666306
0.1420000000000001,2.7974955901540828227,0.020193670152037175386,5.3431713109325880387,1.1852981377701101564,13.367238337470666306
0.1430000000000001,2.7975160612860286487,0.02074989579128310449,5.3443607986189689074,1.1936772238154359283,13.367238337470666308
0.1440000000000001,2.7975370925532011268,0.021313944008147688648,5.345558665352676858,1.2020562272054753014,13.367238337470666312
0.1450000000000001,2.797558691788237683,0.02188583477322248632,5.3467649110352538223,1.2104351161878021708,13.367238337470666315
0.1460000000000001,2.7975808668432972026,0.022465587156766992029,5.347979535536046327,1.2188138581216334423,13.367238337470666316
0.1470000000000001,2.7976036255891534707,0.02305321931623000012,5.3492025386913099067,1.2271924194633397035,13.367238337470666319
0.1480000000000001,2.7976269759142760672,0.023648748483639168113,5.350433920303298943,1.2355707657517847706,13.367238337470666323
0.1490000000000001,2.7976509257238985845,0.024252190952858204307,5.351673680139341755,1.2439488615934934571,13.367238337470666324
