t,phi1,v1,phi2,v2,energy
0.0,1.6934498261152661769,0.0,3.0644607984432776782,0.0,12.181265474748296316
0.001,1.6934448984287920195,-0.009855370873477279639,3.0644613984181888818,0.0011999256236748724333,12.181265474748296306
0.002,1.6934301153818181536,-0.019710716850433036842,3.0644631981977302048,0.0023995608629507752667,12.181265474748296295
0.003,1.6934054770116862602,-0.029566013042616778515,3.0644661973463258433,0.0035986153355467622831,12.181265474748296286
0.004,1.6933709833806186887,-0.039421234578318518404,3.064470395138019653,0.0047967986634167309007,12.181265474748296275
0.005,1.6933266345756977844,-0.04927635661063515087,3.064475790556480442,0.005993820474863836653,12.181265474748296264
0.006,1.6932724307088369497,-0.05913135432573216937,3.0644823822950093767,0.007189390406651300047,12.181265474748296254
0.007,1.6932083719167434467,-0.06898620295109917825,3.0644901687565494937,0.008383218106108405186,12.181265474748296246
0.008,1.693134458360872949,-0.07884087776379764694,3.0644991480536973177,0.009575013233230491244,12.181265474748296238
0.009000000000000001,1.6930506902273758499,-0.08869535409869935596,3.064509318008716574,0.01076448546277173993,12.18126547474829623
0.010000000000000002,1.6929570677270353368,-0.09854960735671398478,3.0645206761535539902,0.01195134448632956465,12.18126547474829622
0.011000000000000003,1.6928535910951972453,-0.108403613013004292235,3.064533219729857178,0.0131353000144194098886,12.1812654747482962125
0.012000000000000004,1.6927402605916917035,-0.11825734662518734084,3.0645469456889945835,0.0143160617785387728125,12.181265474748296203
0.013000000000000005,1.6926170765007465843,-0.12811078384152021722,3.0645618506920774976,0.015493339533219262736,12.181265474748296195
0.014000000000000005,1.6924840391308927788,-0.1379639004090687017,3.0645779311099841098,0.016666843058065518347,12.1812654747482961865
0.015000000000000006,1.6923411488148613115,-0.14781667218185734144,3.0645951830233855947,0.017836282159779807166,12.1812654747482961804
0.016000000000000007,1.6921884059094723144,-0.15766907512899938195,3.0646136022227742164,0.01900136667417113673,12.181265474748296172
0.017000000000000008,1.6920258107955158827,-0.16752108534280501351,3.0646331842084934315,0.020161806468147712462,12.181265474748296162
0.01800000000000001,1.6918533638776248332,-0.17737267904686639038,3.0646539241907699784,0.021317311441691583028,12.181265474748296155
0.01900000000000001,1.6916710655841393899,-0.18722383260411788135,3.0646758170897479303,0.022467591529814320295,12.1812654747482961475
0.02000000000000001,1.6914789163669638227,-0.19707452252487001251,3.0646988575355246936,0.023612356704492587689,12.181265474748296135
0.02100000000000001,1.6912769167014150663,-0.20692472547481556391,3.064723039868188933,0.024751316976582457963,12.181265474748296129
0.022000000000000013,1.6910650670860633458,-0.21677441828300628394,3.0647483581378603982,0.025884182397711348849,12.181265474748296121
0.023000000000000013,1.6908433680425648437,-0.22662357794979868638,3.0647748061047316308,0.027010663062146453157,12.181265474748296114
0.024000000000000014,1.6906118201154864344,-0.23647218165476739779,3.0648023772391115294,0.028130469108638548253,12.181265474748296105
0.025000000000000015,1.6903704238721225245,-0.24632020676458452357,3.0648310647214707435,0.029243310722240078718,12.181265474748296095
0.026000000000000016,1.6901191799023040298,-0.25616763084086350413,3.0648608614424888738,0.030348898136096415272,12.181265474748296084
0.027000000000000017,1.6898580888181995276,-0.2660144316479659337,3.0648917600031034489,0.031446941633209202768,12.181265474748296072
0.028000000000000018,1.6895871512541086215,-0.27586058716076981747,3.06492375271456065,0.032537151548170720177,12.181265474748296068
0.02900000000000002,1.6893063678662475562,-0.2857060755723977437,3.0649568315984677585,0.03361923826886818612,12.181265474748296059
0.03000000000000002,1.6890157393325271279,-0.29555087530190345092,3.0649909883868472881,0.034692912238156954446,12.181265474748296052
0.03100000000000002,1.6887152663523229263,-0.3053949650019152722,3.0650262145221927775,0.03575788395550155592,12.181265474748296044
0.03200000000000002,1.6884049496462379575,-0.3152383235662349405,3.0650625011575262059,0.0368138639785835538,12.181265474748296036
0.03300000000000002,1.6880847899558576906,-0.3250809301373902426,3.0650998391564569998,0.03786056292487519364,12.181265474748296026
0.03400000000000002,1.6877547880434975745,-0.33492276411414001084,3.0651382190932425953,0.038897691473177840192,12.181265474748296018
0.035000000000000024,1.6874149446919430753,-0.34476380515892994535,3.0651776312528505224,0.039924960365124207696,12.181265474748296013
0.036000000000000025,1.6870652607041822817,-0.35460403320529776148,3.0652180656310219712,0.040942080406643403305,12.181265474748296004
0.037000000000000026,1.6867057369031311336,-0.36444342846522616045,3.0652595119343368055,0.041948762469387817674,12.181265474748295996
0.03800000000000003,1.6863363741313513217,-0.3742819714364421241,3.0653019595802799826,0.0429447174921209112,12.181265474748295991
0.03900000000000003,1.6859571732507609164,-0.3841196429096610376,3.0653453976973093426,0.043929656482064959323,12.1812654747482959836
0.04000000000000003,1.685568135142337782,-0.39395642397577414686,3.065389815124924723,0.044903290516207835874,12.1812654747482959775
0.04100000000000003,1.6851692607058158303,-0.40379229603297786083,3.0654352004137383613,0.04586533074256792927,12.1812654747482959705
0.04200000000000003,1.6847605508593741759,-0.41362724079384341166,3.0654815418255465392,0.046815488381416302663,12.181265474748295966
0.04300000000000003,1.6843420065393192521,-0.42346124029232538958,3.065528827333402429,0.047753474726455226014,12.181265474748295958
0.04400000000000003,1.683913628699759949,-0.4332942768907076719,3.0655770446216900952,0.048679001145952225257,12.181265474748295953
0.04500000000000003,1.683475418312275838,-0.44312633328648526974,3.0656261810861996078,0.049591779083828811433,12.181265474748295948
0.046000000000000034,1.6830273763655785472,-0.4529573925191806187,3.065676223834203222,0.050491520060703070826,12.181265474748295942
0.047000000000000035,1.6825695038651663534,-0.46278743797709284423,3.065727159684532576,0.05137793567488531575,12.181265474748295937
0.048000000000000036,1.6821018018329720595,-0.47261645340397853522,3.0657789751676568614,0.052250737603326014643,12.181265474748295932
0.04900000000000004,1.6816242713070042253,-0.48244442290566256286,3.0658316565257619176,0.053109637602515239787,12.181265474748295927
0.05000000000000004,1.6811369133409818244,-0.4922713309565774867,3.0658851897128301994,0.053954347509332890803,12.181265474748295923
0.05100000000000004,1.6806397290039623959,-0.50209716240623009195,3.0659395603947215726,0.054784579241848972618,12.18126547474829592
0.05200000000000004,1.6801327193799637688,-0.51192190248559360716,3.0659947539492548821,0.055600044800073227484,12.181265474748295916
0.05300000000000004,1.6796158855675794306,-0.5217455368134241545,3.0660507554662902456,0.056400456266653441955,12.1812654747482959116
0.05400000000000004,1.6790892286795876181,-0.53156805140249998947,3.0661075497478120196,0.057185525807521771687,12.181265474748295908
0.05500000000000004,1.6785527498425542088,-0.5413894326657820893,3.0661651213080123842,0.057954965672488449038,12.1812654747482959055
0.05600000000000004,1.6780064501964294906,-0.5512096674224946562,3.0662234543733754958,0.058708488195782261393,12.1812654747482959
0.057000000000000044,1.677450330894138893,-0.56102874290412410113,3.0662825328827621545,0.059445805796537211264,12.181265474748295895
0.058000000000000045,1.6768843931011677593,-0.5708466467603350835,3.0663423404874949288,0.060166630979224792917,12.181265474748295892
0.059000000000000045,1.6763086379951402453,-0.5806633670648021802,3.0664028605514436878,0.06087067633403134449,12.1812654747482958855
0.060000000000000046,1.67572306676539243,-0.59047889232095576684,3.0664640761511114799,0.06155765453717995914,12.18126547474829588
0.06100000000000005,1.6751276806125397226,-0.60029321146764069483,3.0665259700757207088,0.06222727835119646389,12.181265474748295876
0.06200000000000005,1.6745224807480386553,-0.61010631388468635286,3.066588524827299545,0.062879260625119000405,12.181265474748295873
0.06300000000000004,1.6739074683937431519,-0.61991818939838670666,3.066651722620768519,0.06351331429465076798,12.181265474748295871
0.06400000000000004,1.6732826447814553604,-0.62972882828688891407,3.0667155453840272401,0.0641291523822555154,12.181265474748295869
0.06500000000000004,1.6726480111524711449,-0.6395382212854891158,3.0667799747580411782,0.064726487997195395536,12.181265474748295865
0.06600000000000004,1.6720035687571203275,-0.6493463595918340094,3.0668449920969284598,0.0653050343355108238,12.181265474748295864
0.06700000000000005,1.6713493188543017768,-0.6591532348710268149,3.0669105784680466102,0.065864504679942009434,12.18126547474829586
0.06800000000000005,1.6706852627110134388,-0.668958839260636247,3.0669767146520791905,0.066404612399791857266,12.181265474748295859
0.06900000000000005,1.6700114016018774079,-0.6787631653756071119,3.0670433811431222666,0.06692507095072996599,12.1812654747482958595
0.07000000000000005,1.6693277368086601366,-0.68856620631307115195,3.0671105581487706534,0.06742559387453747884,12.181265474748295859
0.07100000000000005,1.668634269619787886,-0.69836795565705676446,3.0671782255902038748,0.06790589479879257179,12.181265474748295857
0.07200000000000005,1.6679310013298575162,-0.7081684074830962262,3.0672463631022717774,0.06836568743649639497,12.181265474748295859
0.07300000000000005,1.6672179332391427222,-0.7179675563627290588,3.067314950033579742,0.06880468558563931372,12.181265474748295856
0.07400000000000005,1.6664950666530958194,-0.72776539736790017487,3.0673839654465734318,0.0692226031287073266,12.181265474748295857
0.07500000000000005,1.6657624028818451825,-0.73756192607525144855,3.0674533881176230153,0.06961915403212856961,12.181265474748295854
0.07600000000000005,1.6650199432396884482,-0.74735713857030535774,3.0675231965371068071,0.06999405234565984777,12.1812654747482958534
0.07700000000000005,1.6642676890445815885,-0.75715103145153935183,3.0675933689094942655,0.0703470122017131679,12.181265474748295856
0.07800000000000006,1.6635056416176239638,-0.7669436018343495989,3.0676638831534282844,0.07067774781462227928,12.181265474748295859
0.07900000000000006,1.6627338022825394695,-0.77673484735490277406,3.0677347169018067245,0.07098597347984926264,12.181265474748295859
0.08000000000000006,1.6619521723651538868,-0.78652476617387455344,3.0678058475018631197,0.07127140357313124153,12.181265474748295861
0.08100000000000006,1.6611607531928685518,-0.7963133569800734805,3.067877252015246501,0.071533752549567324715,12.181265474748295865
0.08200000000000006,1.6603595460941304591,-0.80610061899394887843,3.067948907218100276,0.071772734942645923144,12.181265474748295866
0.08300000000000006,1.659548552397898916,-0.81588655197098148387,3.0680207896011401079,0.07198806536321262004,12.181265474748295867
0.08400000000000006,1.6587277734331088652,-0.8256711562049554819,3.0680928753697307328,0.072179458498378808827,12.1812654747482958725
0.08500000000000006,1.6578972105281309946,-0.83545443253111062644,3.0681651404439616532,0.07234662911037134934,12.181265474748295875
0.08600000000000006,1.657056865010228757,-0.845236382329173132,3.0682375604587216551,0.072489292035323529886,12.181265474748295876
0.08700000000000006,1.6562067382050124188,-0.8550170075262640298,3.0683101107637720853,0.07260716218200765939,12.181265474748295882
0.08800000000000006,1.6553468314358902623,-0.86479631059968368025,3.0683827664238188327,0.07269995453050965169,12.181265474748295887
0.08900000000000007,1.6544771460235170666,-0.8745742945795711419,3.0684555022185829548,0.072767384130846001804,12.181265474748295895
0.09000000000000007,1.6535976832852399917,-0.8843509630514370967,3.0685282926428698938,0.07280916610152359263,12.1812654747482959
0.09100000000000007,1.6527084445345419934,-0.89412632015856903636,3.0686011119066372219,0.07282501562804280909,12.181265474748295904
0.09200000000000007,1.6518094310804828981,-0.903900370604307418,3.0686739339350608642,0.07281464796134447622,12.1812654747482959055
0.09300000000000007,1.6509006442271382658,-0.91367311965419149947,3.068746732368599738,0.07277777841620117742,12.1812654747482959116
0.09400000000000007,1.6499820852730361725,-0.92344457313797356817,3.0688194805630587595,0.072714122369553548975,12.181265474748295914
0.09500000000000007,1.6490537555105920465,-0.93321473745150027983,3.068892151589650155,0.072623395258792187846,12.18126547474829592
0.09600000000000007,1.6481156562255416886,-0.94298361955845982717,3.0689647182350530304,0.07250531257998585029,12.181265474748295927
0.09700000000000007,1.6471677886963726129,-0.95275122699199365963,3.0690371530014711415,0.0723595898860566607,12.181265474748295936
0.09800000000000007,1.6462101541937538456,-0.96251756785617147914,3.069109428106688813,0.072185942784903091535,12.181265474748295945
0.09900000000000007,1.6452427539799643159,-0.97228265082732823915,3.0691815154841249546,0.0719840869374715175,12.181265474748295953
0.10000000000000007,1.6442655893083199809,-0.98204648515526187484,3.0692533867828851238,0.071753738055777189724,12.1812654747482959645
0.10100000000000008,1.6432786614225998215,-0.991809080664290497,3.069325013367811585,0.071494611900875518944,12.181265474748295974
0.10200000000000008,1.6422819715564708532,-1.0015704477541677817,3.0693963663195313139,0.07120642428078459962,12.181265474748295981
0.10300000000000008,1.6412755209329122923,-1.0113305974008552918,3.0694674164345019023,0.070888891048359951255,12.18126547474829599
0.10400000000000008,1.6402593107636390219,-1.0210895411571504649,3.0695381342250553135,0.070541728099122496996,12.181265474748296002
0.10500000000000008,1.6392333422485245025,-1.0308472911531690089,3.0696084899194394419,0.07016465136904084437,12.18126547474829601
0.10600000000000008,1.6381976165750232739,-1.040603860096680441,3.0696784534618574332,0.069757376832268977924,12.181265474748296022
0.10700000000000008,1.6371521349175931953,-1.0503592612732955136,3.0697479945125047216,0.069319620498840518866,12.181265474748296032
0.10800000000000008,1.6360968984371175721,-1.0601135085465042669,3.0698170824476037376,0.06885109841232075256,12.181265474748296046
0.10900000000000008,1.6350319082803273209,-1.0698666163575634515,3.0698856863594362492,0.06835152664741767075,12.18126547474829606
0.11000000000000008,1.6339571655792233217,-1.0796185997252320633,3.069953775056373294,0.06782062130755332187,12.181265474748296072
0.11100000000000008,1.6328726714504991122,-1.0893694742453537344,3.0700213170629026616,0.067258098522396809655,12.181265474748296084
0.11200000000000009,1.6317784269949640761,-1.0991192560902847238,3.0700882806196538922,0.06666367444536032731,12.181265474748296097
0.11300000000000009,1.6306744332969672813,-1.1088679620081662513,3.0701546336834207541,0.06603706525105966213,12.181265474748296114
0.11400000000000009,1.6295606914238221233,-1.1186156093220399177,3.070220343927181161,0.06537798713274065313,12.181265474748296126
0.11500000000000009,1.6284372024252319346,-1.1283622159288049569,3.0702853787401145039,0.06468615629967313271,12.18126547474829614
0.11600000000000009,1.6273039673327167133,-1.1381078002980160579,3.0703497052276163574,0.063961288974513931695,12.181265474748296154
0.11700000000000009,1.6261609871590411365,-1.1478523814705205043,3.0704132902113105376,0.06320310139064057599,12.181265474748296172
0.11800000000000009,1.625008262897644016,-1.1575959790569333676,3.0704761002290584763,0.062411309789457352228,12.181265474748296188
0.11900000000000009,1.6238457955220693612,-1.1673386132359494957,3.070538101534965891,0.061585630417675469445,12.181265474748296206
0.12000000000000009,1.6226735859853992118,-1.1770803047524910359,3.0705992600993867213,0.060725779524569093424,12.1812654747482962195
0.1210000000000001,1.6214916352196884059,-1.1868210749156892271,3.0706595416089243111,0.059831473359209080603,12.181265474748296235
0.1220000000000001,1.6202999441354014491,-1.1965609455966991978,3.070718911466429813,0.058902428167676288694,12.181265474748296253
0.1230000000000001,1.6190985136208516534,-1.2062999392263465008,3.070777334790997797,0.057938360190256392108,12.181265474748296271
0.1240000000000001,1.6178873445416427145,-1.2160380787926041163,3.0708347764179590468,0.056938985658618180985,12.181265474748296292
0.12500000000000008,1.6166664377401128962,-1.2257753878378986507,3.070891200898870525,0.055904020792977374158,12.181265474748296309
0.12600000000000008,1.6154357940347819963,-1.235511890456244456,3.0709465725015024963,0.05483318179924802777,12.181265474748296329
0.12700000000000009,1.614195414219801263,-1.2452476112902043917,3.0710008552098227988,0.053726184866183673117,12.181265474748296344
0.12800000000000009,1.6129452990644064396,-1.2549825755276759475,3.0710540127239782488,0.052582746162510369428,12.181265474748296362
0.1290000000000001,1.6116854493123741096,-1.264716808898501443,3.0711060084602731784,0.051402581834053909574,12.181265474748296381
0.1300000000000001,1.6104158656814815204,-1.2744503376709010138,3.0711568055511450973,0.050185408000863469288,12.181265474748296404
0.1310000000000001,1.6091365488629700636,-1.284183188647727093,3.0712063668451374762,0.04893094075433404333,12.181265474748296426
0.1320000000000001,1.60784749952101259,-1.2939153891625390904,3.071254654906869656,0.047638896154330065115,12.181265474748296446
0.1330000000000001,1.6065487182921847416,-1.3036469670754969672,3.0713016320170038792,0.046308990226312659547,12.181265474748296468
0.1340000000000001,1.6052402057849404788,-1.313377950769072401,3.0713472601722094533,0.04494093895847303242,12.18126547474829649
0.1350000000000001,1.6039219625790919908,-1.3231083691435762281,3.07139150108512405,0.04353445829887455339,12.181265474748296513
0.1360000000000001,1.6025939892252941692,-1.3328382516125008486,3.0714343161843121546,0.042089264152606143486,12.181265474748296537
0.1370000000000001,1.6012562862445338328,-1.3425676280976762688,3.071475666614220673,0.040605072378949632323,12.18126547474829656
0.1380000000000001,1.5999088541276238903,-1.3522965290242384574,3.0715155132351317153,0.039081598788563804433,12.181265474748296584
0.1390000000000001,1.5985516933347026289,-1.3620249853154086761,3.0715538166231125727,0.037518559140687908664,12.181265474748296608
0.1400000000000001,1.5971848042947383186,-1.3717530283870824485,3.071590537069962909,0.035915669140367459353,12.181265474748296632
0.1410000000000001,1.5958081874050393231,-1.3814806901422268175,3.07162563458315919,0.034272644435705212723,12.18126547474829666
0.1420000000000001,1.5944218430307699099,-1.3912080029650845394,3.0716590688857963781,0.032589200615140257124,12.181265474748296687
0.1430000000000001,1.5930257715044719541,-1.4009349997151838525,3.0716907994165269205,0.030865053204758210742,12.181265474748296711
0.1440000000000001,1.5916199731255927288,-1.4106617137211524523,3.0717207853294970657,0.029099917665635575858,12.181265474748296739
0.1450000000000001,1.5902044481600189814,-1.4203881787743342969,3.0717489854942805413,0.027293509391221354125,12.181265474748296766
0.1460000000000001,1.5887791968396174909,-1.4301144291222078627,3.0717753584958096343,0.025445543704759082896,12.181265474748296794
0.1470000000000001,1.5873442193617823083,-1.4398404994616044524,3.071799862634303714,0.02355573585675250839,12.181265474748296821
0.1480000000000001,1.5858995158889888779,-1.4495664249317251623,3.0718224559251952463,0.021623801022478167209,12.181265474748296851
0.1490000000000001,1.5844450865483552436,-1.459292241106955095,3.0718430960990533417,0.019649454299548203674,12.181265474748296883
