t,phi1,v1,phi2,v2,energy
0.0,0.6735662047177276568,0.0,1.4703343988678230225,0.0,-16.318908243600295753
0.001,0.67356441307281543973,-0.0035832815225102999902,1.4703307709972108169,-0.007255747178849154159,-16.31890824360029575
0.002,0.67355903818789033736,-0.007166463421915291502,1.4703198873496477111,-0.014511565810445378716,-16.31890824360029575
0.003,0.6735500802123870391,-0.010749446075025636852,1.4703017478179556193,-0.021767527344777714281,-16.318908243600295746
0.004,0.6735375393953635008,-0.014332129858484226805,1.4702763522235089941,-0.029023703226319242136,-16.318908243600295746
0.005,0.67352141608550115395,-0.01791441514868301198,1.4702437003162417221,-0.03628016489126935519,-16.318908243600295743
0.006,0.6735017107311051976,-0.021496202321680695011,1.4702037917746567766,-0.043536983764796329557,-16.31890824360029574
0.007,0.673478423880104973,-0.025077391753121570668,1.4701566262058386268,-0.05079423125828029672,-16.318908243600295738
0.008,0.6734515561800544173,-0.028657883818155801322,1.4701022031454684042,-0.058051978766556716046,-16.318908243600295736
0.009000000000000001,0.67342110837813259737,-0.032237578891361415437,1.470040522057841826,-0.06531029766516044726,-16.31890824360029573
0.010000000000000002,0.6733870813211443197,-0.035816377346668317134,1.4699715823358898723,-0.07256925930757052201,-16.318908243600295729
0.011000000000000003,0.67334947595552081584,-0.0393941795572845952,1.4698953833012022202,-0.079828935022455713506,-16.318908243600295727
0.012000000000000004,0.67330829332732049984,-0.042970885895625420398,1.4698119242040534305,-0.08708939611092100271,-16.318908243600295726
0.013000000000000005,0.6732635345822297956,-0.04654639673324482046,1.4697212042234318878,-0.09435071384375503914,-16.318908243600295724
0.014000000000000005,0.6732152009655640308,-0.05012061244077062263,1.4696232224670714927,-0.10161295945867869384,-16.31890824360029572
0.015000000000000006,0.67316329382226839425,-0.05369343338784285434,1.4695179779714861044,-0.10887620415759480161,-16.318908243600295719
0.016000000000000007,0.67310781459691895295,-0.05726475994305589316,1.4694054697020067344,-0.11614051910383918876,-16.318908243600295719
0.017000000000000008,0.6730487648337237248,-0.060834492473904657976,1.4692856965528214865,-0.123405975419433082424,-16.318908243600295717
0.01800000000000001,0.6729861461765238035,-0.06440253134673513412,1.4691586573470182449,-0.13067264418233699625,-16.318908243600295713
0.01900000000000001,0.67291996036879453,-0.06796877692669952593,1.469024350836630107,-0.13794059642370618704,-16.31890824360029571
0.02000000000000001,0.6728502092536467067,-0.07153312957771633135,1.4688827757026835607,-0.14520990312514777557,-16.318908243600295708
0.02100000000000001,0.6727768947738278492,-0.075095489662435633694,1.4687339305552494031,-0.15248063521597962477,-16.318908243600295705
0.022000000000000013,0.67270001897172346955,-0.07865575754220990733,1.4685778139334963997,-0.15975286357049106637,-16.318908243600295701
0.023000000000000013,0.67261958398935838607,-0.08221383357707063449,1.4684144243057476811,-0.16702665900520556732,-16.3189082436002957
0.024000000000000014,0.6725355920683980537,-0.08576961812571103197,1.4682437600695398775,-0.17430209227614542564,-16.318908243600295696
0.025000000000000015,0.672448045550149908,-0.08932301154547518747,1.4680658195516849863,-0.18157923407609858427,-16.318908243600295696
0.026000000000000016,0.6723569468755647171,-0.092873914192353906674,1.4678806010083349718,-0.18885815503188765057,-16.318908243600295694
0.027000000000000017,0.672262298585237934,-0.09642222642098757332,1.4676881026250490959,-0.19613892570164120804,-16.318908243600295693
0.028000000000000018,0.67216410331941104267,-0.09996784858467632607,1.4674883225168639747,-0.20342161657206750506,-16.318908243600295689
0.02900000000000002,0.67206236381797288974,-0.10351068103539785735,1.4672812587283663612,-0.21070629805573060467,-16.318908243600295687
0.03000000000000002,0.6719570829204609953,-0.10705062412383314058,1.4670669092337686508,-0.21799304048832907807,-16.318908243600295686
0.03100000000000002,0.67184826356606283296,-0.110587578199400394244,1.4668452719369871056,-0.22528191412597732234,-16.31890824360029568
0.03200000000000002,0.67173590879361707185,-0.11412144361029759231,1.466616344671722797,-0.2325729891424895826,-16.318908243600295679
0.03300000000000002,0.67162002174161477267,-0.11765212070355383263,1.4663801252015452634,-0.23986633562666675602,-16.318908243600295677
0.03400000000000002,0.6715006056482005263,-0.121179509825089876335,1.4661366112199788781,-0.2471620235795860547,-16.318908243600295675
0.035000000000000024,0.67137766385117352854,-0.12470351131978817322,1.4658858003505919271,-0.25446012291189360136,-16.318908243600295672
0.036000000000000025,0.6712511997879885787,-0.12822402553157268996,1.4656276901470883931,-0.26176070344110003178,-16.318908243600295668
0.037000000000000026,0.6711212169957569944,-0.13174095280349885975,1.4653622780934024413,-0.26906383488887917433,-16.318908243600295668
0.03800000000000003,0.67098771911124743106,-0.13525419347785397422,1.4650895616037956061,-0.27636958687836987635,-16.318908243600295665
0.03900000000000003,0.67085070987088659447,-0.13876364789626834012,1.4648095380229566735,-0.28367802893148104487,-16.318908243600295661
0.04000000000000003,0.6707101931107598386,-0.14226921639983752583,1.4645222046261042572,-0.2909892304661999664,-16.318908243600295658
0.04100000000000003,0.6705661727666116338,-0.14577079932925602444,1.4642275586190920643,-0.29830326079390396982,-16.318908243600295656
0.04200000000000003,0.67041865287384589647,-0.14926829702496266283,1.4639255971385168492,-0.30562018911667549305,-16.318908243600295653
0.04300000000000003,0.67026763756752616674,-0.15276160982729808819,1.4636163172518290483,-0.3129400845246206126,-16.31890824360029565
0.04400000000000003,0.6701131310823756231,-0.15625063807667466579,1.4632997159574460959,-0.32026301599319109215,-16.31890824360029565
0.04500000000000003,0.6699551377527769201,-0.15973528211375912437,1.4629757901848684166,-0.3275890523805100052,-16.318908243600295647
0.046000000000000034,0.66979366201277183756,-0.16321544227966828798,1.4626445367947980889,-0.33491826242470098274,-16.318908243600295646
0.047000000000000035,0.6696287083960607267,-0.1666910189161782356,1.4623059525792601789,-0.34225071474122113565,-16.318908243600295646
0.048000000000000036,0.66946028153600174086,-0.17016191236594723256,1.461960034261726739,-0.34958647782019769813,-16.318908243600295642
0.04900000000000004,0.66928838616560983564,-0.17362802297275278045,1.4616067784972434671,-0.3569256200237684364,-16.31890824360029564
0.05000000000000004,0.6691130271175555255,-0.17708925108174313494,1.4612461818725590255,-0.3642682095834258635,-16.318908243600295639
0.05100000000000004,0.66893420932416338087,-0.1805454970397036441,1.460878240906257011,-0.37161431459736529864,-16.318908243600295637
0.05200000000000004,0.6687519378174102517,-0.18399666119533826208,1.4605029520488905776,-0.37896400302783680617,-16.318908243600295635
0.05300000000000004,0.66856621772892320144,-0.18744264389956659652,1.4601203116831197039,-0.38631734269850104692,-16.318908243600295634
0.05400000000000004,0.6683770542899771366,-0.1908833455058368513,1.4597303161238511023,-0.39367440129178907037,-16.318908243600295632
0.05500000000000004,0.6681844528314921144,-0.19431866637045502847,1.459332961618380768,-0.40103524634626607406,-16.318908243600295632
0.05600000000000004,0.66798841878403031395,-0.19774850685293075735,1.458928244346539161,-0.40839994525399915274,-16.31890824360029563
0.057000000000000044,0.66778895767779265243,-0.20117276731634012172,1.4585161604208390181,-0.41576856525792905622,-16.318908243600295628
0.058000000000000045,0.66758607514261503006,-0.20459134812770585917,1.4580967058866257921,-0.42314117344924597177,-16.318908243600295627
0.059000000000000045,0.66737977690796418596,-0.20800414965839531061,1.4576698767222307131,-0.43051783676476934292,-16.318908243600295625
0.060000000000000046,0.66717006880293314684,-0.21141107228453650072,1.457235668839126467,-0.43789862198433173335,-16.318908243600295623
0.06100000000000005,0.66695695675623625103,-0.21481201638745273474,1.4567940780820854898,-0.44528359572816673983,-16.31890824360029562
0.06200000000000005,0.66674044679620372736,-0.21820688235411609936,1.4563451002293408694,-0.45267282445430095535,-16.31890824360029562
0.06300000000000004,0.6665205450507758123,-0.22159557057762026081,1.4558887309927498561,-0.46006637445594997834,-16.318908243600295618
0.06400000000000004,0.6662972577474963834,-0.22497798145767295539,1.4554249660179599738,-0.4674643118589184612,-16.318908243600295616
0.06500000000000004,0.6660705912135060908,-0.22835401540110857303,1.4549538008845777289,-0.47486670261900418532,-16.318908243600295616
0.06600000000000004,0.66584055187553496544,-0.23172357282242123763,1.4544752311063399135,-0.48227361251940614707,-16.318908243600295616
0.06700000000000005,0.66560714625989448456,-0.23508655414431879223,1.4539892521312874986,-0.4896851071681366336,-16.318908243600295613
0.06800000000000005,0.66537038099246907175,-0.23844285979829810147,1.453495859341942113,-0.49710125199543726357,-16.318908243600295611
0.06900000000000005,0.66513026279870701154,-0.24179239022524208762,1.4529950480554851046,-0.50452211225119896203,-16.31890824360029561
0.07000000000000005,0.6648867985036107552,-0.24513504587603892133,1.4524868135239391789,-0.5119477530023858348,-16.318908243600295608
0.07100000000000005,0.6646399950317265969,-0.24847072721222379208,1.4519711509343526132,-0.5193782391304629029,-16.318908243600295608
0.07200000000000005,0.6643898594071336961,-0.25179933470664368859,1.451448055408986039,-0.5268136353288276514,-16.318908243600295608
0.07300000000000005,0.66413639875343242363,-0.25512076884414562316,1.4509175220055017937,-0.53425400610024534174,-16.318908243600295604
0.07400000000000005,0.66387962029373200746,-0.25843493012228873972,1.4503795457171558318,-0.5416994157542880338,-16.318908243600295602
0.07500000000000005,0.6636195313506374546,-0.26174171905208074902,1.4498341214729921988,-0.5491499284047772542,-16.3189082436002956
0.07600000000000005,0.663356139346235724,-0.2650410361587391403,1.4492812441380400576,-0.5566056079672302454,-16.3189082436002956
0.07700000000000005,0.6630894518020811255,-0.26833278198247762308,1.4487209085135132695,-0.564066518156309722,-16.318908243600295597
0.07800000000000006,0.66281947633917991986,-0.27161685707931825832,1.4481531093370125207,-0.5715327224832770566,-16.318908243600295599
0.07900000000000006,0.66254622067797409353,-0.27489316202192974292,1.4475778412827299973,-0.579004284253448809,-16.318908243600295595
0.08000000000000006,0.6622696926383242814,-0.27816159740049231744,1.4469950989616565996,-0.5864812665636565086,-16.318908243600295597
0.08100000000000006,0.6619899001394918122,-0.28142206382358977165,1.4464048769217916962,-0.59396373229970959233,-16.318908243600295595
0.08200000000000006,0.6617068512001198467,-0.28467446191912902865,1.4458071696483554132,-0.6014517441338613939,-16.318908243600295594
0.08300000000000006,0.66142055393821358396,-0.28791869233528779356,1.445201971564003456,-0.60894536452227807343,-16.318908243600295592
0.08400000000000006,0.6611310165711195039,-0.29115465574149075853,1.4445892770290444612,-0.61644465570251036953,-16.318908243600295592
0.08500000000000006,0.6608382474155036211,-0.29438225282941486198,1.4439690803416598749,-0.6239496796909680495,-16.31890824360029559
0.08600000000000006,0.66054225488732871665,-0.29760138431402410544,1.4433413757381263548,-0.63146049828039692504,-16.31890824360029559
0.08700000000000006,0.66024304750183052207,-0.30081195093463443792,1.4427061573930406958,-0.6389771730373582939,-16.318908243600295589
0.08800000000000006,0.65994063387349282166,-0.30401385345600922367,1.4420634194195472722,-0.6464997652997106603,-16.318908243600295589
0.08900000000000007,0.6596350227160214446,-0.3072069926694858154,1.4414131558695680006,-0.65402833617409357925,-16.318908243600295587
0.09000000000000007,0.6593262228423171145,-0.31039126939413376184,1.4407553607340348145,-0.66156294653341346154,-16.318908243600295585
0.09100000000000007,0.6590142431644471244,-0.31356658447794518452,1.4400900279431246547,-0.66910365701433116787,-16.318908243600295585
0.09200000000000007,0.6586990926936158061,-0.31673283879905786588,1.4394171513664969705,-0.67665052801475121346,-16.318908243600295585
0.09300000000000007,0.65838078054013375845,-0.31988993326701159733,1.4387367248135337301,-0.68420361969131239364,-16.318908243600295583
0.09400000000000007,0.6580593159133858034,-0.32303776882403834264,1.4380487420335819407,-0.6917629919568796344,-16.318908243600295582
0.09500000000000007,0.6577347081217976344,-0.32617624644638677954,1.4373531967161986765,-0.6993287044780368611,-16.318908243600295583
0.09600000000000007,0.6574069665728011231,-0.32930526714568178923,1.4366500824913986126,-0.70690081667258067104,-16.31890824360029558
0.09700000000000007,0.65707610077279824794,-0.33242473197031947085,1.435939392929904065,-0.714479387707014584,-16.318908243600295582
0.09800000000000007,0.65674212032712361137,-0.33553454200689826573,1.435221121543397537,-0.722064476494043637,-16.31890824360029558
0.09900000000000007,0.6564050349400055058,-0.33863459838168678357,1.4344952617847767698,-0.72965614169006907946,-16.318908243600295582
0.10000000000000007,0.6560648544145254946,-0.34172480226212893024,1.4337618070484122992,-0.73725444169268291303,-16.318908243600295582
0.10100000000000008,0.6557215886525764682,-0.3448050548583869454,1.4330207506704075176,-0.74485943463816201314,-16.318908243600295582
0.10200000000000008,0.65537524765481913833,-0.34787525742492296542,1.4322720859288612425,-0.752471178398961555,-16.31890824360029558
0.10300000000000008,0.6550258415206369308,-0.35093531126211973604,1.4315158060441327919,-0.7600897305812074594,-16.31890824360029558
0.10400000000000008,0.6546733804480892383,-0.3539851177179411067,1.4307519041791095677,-0.7677151485221875601,-16.318908243600295582
0.10500000000000008,0.6543178747338629921,-0.3570245781896329479,1.4299803734394771493,-0.7753474892878411843,-16.318908243600295582
0.10600000000000008,0.65395933477322251237,-0.36005359412546514056,1.4292012068739918972,-0.7829868096702468261,-16.318908243600295582
0.10700000000000008,0.6535977710599575962,-0.3630720670265152959,1.4284143974747560718,-0.7906331661851075808,-16.318908243600295583
0.10800000000000008,0.6532331941863297998,-0.3660798984484948734,1.4276199381774954667,-0.7982866150692339954,-16.318908243600295582
0.10900000000000008,0.6528656148430168743,-0.36907699000361837265,1.4268178218618395611,-0.8059472122780239786,-16.318908243600295582
0.11000000000000008,0.65249504381905530924,-0.37206324336251628528,1.4260080413516041941,-0.8136150134829394012,-16.31890824360029558
0.11100000000000008,0.6521214920017809421,-0.3750385602561925019,1.4251905894150767634,-0.8212900740689790039,-16.318908243600295578
0.11200000000000009,0.6517449703767675874,-0.37800284247802687886,1.4243654587653039541,-0.8289724491321472173,-16.31890824360029558
0.11300000000000009,0.65136549002776364,-0.38095599188582367962,1.4235326420603820005,-0.83666219347691848365,-16.31890824360029558
0.11400000000000009,0.6509830621366266076,-0.38389791040390661514,1.4226921319037494858,-0.84435936161369665875,-16.318908243600295578
0.11500000000000009,0.65059769798325552354,-0.38682850002526121823,1.4218439208444826851,-0.8520640077562690548,-16.318908243600295576
0.11600000000000009,0.6502094089455211942,-0.38974766281372529725,1.4209880013775934575,-0.85977618581925467324,-16.318908243600295578
0.11700000000000009,0.6498182064991942309,-0.39265530090622822448,1.4201243659443296929,-0.8674959494155461604,-16.318908243600295576
0.11800000000000009,0.6494241022178708184,-0.39555131651507982623,1.4192530069324783199,-0.8752233518537450034,-16.318908243600295576
0.11900000000000009,0.64902710777289616864,-0.39843561193030965157,1.4183739166766708829,-0.8829584461355894702,-16.318908243600295575
0.12000000000000009,0.64862723493328561036,-0.40130808952205740886,1.4174870874586916937,-0.89070128495337477813,-16.318908243600295578
0.1210000000000001,0.648224495565643262,-0.40416865174301536985,1.4165925115077885691,-0.8984519206873649636,-16.31890824360029558
0.1220000000000001,0.64781890163407823615,-0.40701720113092355294,1.4156901810009861587,-0.9062104054031959045,-16.318908243600295578
0.1230000000000001,0.64741046520011832156,-0.40985364031111850885,1.4147800880634018761,-0.9139767908492689345,-16.318908243600295578
0.1240000000000001,0.64699919842262108984,-0.41267787199913654435,1.4138622247685644404,-0.9217511284541344667,-16.318908243600295576
0.12500000000000008,0.6465851135576823711,-0.41548979900337223127,1.4129365831387350398,-0.92953346932386502984,-16.31890824360029558
0.12600000000000008,0.646168222958542043,-0.41828932422779306123,1.412003155145231128,-0.93732386423941710016,-16.318908243600295578
0.12700000000000009,0.64574853907548707664,-0.42107635067471111835,1.4110619327087528636,-0.94512236365398109535,-16.318908243600295582
0.12800000000000009,0.6453260744557517823,-0.42385078144761265587,1.4101129076997122069,-0.95292901769031887563,-16.318908243600295582
0.1290000000000001,0.6449008417434151961,-0.42661251975404647515,1.4091560719385646845,-0.9607438761380880804,-16.318908243600295582
0.1300000000000001,0.6444728536792955478,-0.4293614689085720195,1.4081914171961438379,-0.9685669884511526084,-16.318908243600295582
0.1310000000000001,0.6440421231008417516,-0.43209753233576810808,1.4072189351939983675,-0.9763984037448785274,-16.318908243600295585
0.1320000000000001,0.64360866294202185645,-0.43482061357330325016,1.4062386176047319889,-0.9842381707934146822,-16.318908243600295585
0.1330000000000001,0.64317248623320839515,-0.4375306162750684927,1.405250456052346017,-0.9920863380269572462,-16.318908243600295587
0.1340000000000001,0.6427336061010605691,-0.44022744421437376986,1.4042544421125846922,-0.9999429535289974415,-16.318908243600295589
0.1350000000000001,0.6422920357684032043,-0.44291100128720873715,1.4032505673132832701,-1.0078080650335516308,-16.318908243600295589
0.1360000000000001,0.6418477885541024141,-0.4455811915155690878,1.402238823134718888,-1.0156817199223729609,-16.318908243600295592
0.1370000000000001,0.6414008778729379022,-0.44823791905084936377,1.401219201009964231,-1.023563965222143717,-16.318908243600295592
0.1380000000000001,0.6409513172354718394,-0.45088108817730329089,1.4001916923252440147,-1.0314548476016475216,-16.318908243600295594
0.1390000000000001,0.6404991202479142457,-0.4535106033155726807,1.3991562884202943061,-1.0393544133689204889,-16.318908243600295595
0.1400000000000001,0.64004430061198480873,-0.4561263690262859599,1.3981129805887247058,-1.0472627084683804219,-16.318908243600295595
0.1410000000000001,0.6395868721247710685,-0.45872829001372740368,1.3970617600783834098,-1.0551797784779331147,-16.318908243600295597
0.1420000000000001,0.6391268486785828973,-0.4613162711295781659,1.3960026180917251793,-1.0631056686060547967,-16.318908243600295597
0.1430000000000001,0.63866424426080320155,-0.4638902173767302157,1.3949355457861822388,-1.071040423688849728,-16.318908243600295599
0.1440000000000001,0.63819907295373477335,-0.4664500339131743078,1.3938605342745381305,-1.0789840881870819341,-16.318908243600295599
0.1450000000000001,0.6377313489344432167,-0.4689956260559631314,1.3927775746253045492,-1.0869367061831800358,-16.318908243600295599
0.1460000000000001,0.6372610864745958718,-0.4715268992852507996,1.3916866578631011874,-1.0948983213782141066,-16.318908243600295602
0.1470000000000001,0.63678829994029666217,-0.4740437592484098602,1.3905877749690386175,-1.1028689770888434587,-16.318908243600295604
