t,phi1,v1,phi2,v2,energy
0.0,4.869797708047038931,0.0,6.1426967445094851072,0.0,-12.7889703481991934345
0.001,4.869802665133788132,0.0099141766973193653985,6.1426959763713070667,-0.0015363007552166244261,-12.788970348199193435
0.002,4.86981753641322969,0.019828391783297926114,6.1426936718103779685,-0.0030728943006579164434,-12.7889703481991934475
0.003,4.8698423219429499706,0.029742683655600982996,6.14268983038751125,-0.0046100734298196037046,-12.788970348199193461
0.004,4.869877021818941261,0.039657090729907619003,6.142684451370723852,-0.0061481309427408086365,-12.7889703481991934735
0.005,4.869921636175624289,0.049571651448921518048,6.1426775337352280417,-0.007687359649278932749,-12.788970348199193481
0.006,4.869976165185879754,0.059486404291386497374,6.142669076163419952,-0.009228052372388366094,-12.788970348199193477
0.007,4.87004060906108888,0.0694013877811083248,6.1426590770448648475,-0.010770501951404298305,-12.788970348199193483
0.008,4.8701149680511829883,0.079316640495984392536,6.1426475344762790946,-0.012315001245332908875,-12.788970348199193498
0.009000000000000001,4.8701992424447021093,0.08923220107704281933,6.1426344462615088443,-0.013861843136149215766,-12.788970348199193518
0.010000000000000002,4.870293432568862637,0.09914810823749255326,6.1426198099115054112,-0.015411320532103863332,-12.7889703481991935385
0.011000000000000003,4.8703975387896340406,0.10906440077178604752,6.142603622644297341,-0.016963726371040132512,-12.7889703481991935516
0.012000000000000004,4.870511561511824645,0.11898111756469608234,6.142585881384959152,-0.018519353623722458698,-12.7889703481991935646
0.013000000000000005,4.8706355011791764957,0.12889829760040830626,6.142566582765576746,-0.020078495297177745361,-12.7889703481991935784
0.014000000000000005,4.8707693582744693256,0.13881597997163107069,6.1425457231252094687,-0.021641444438050764412,-12.788970348199193587
0.015000000000000006,4.8709131333196336398,0.14873420388872413233,6.1425232985098488095,-0.023208494135974937596,-12.788970348199193592
0.016000000000000007,4.8710668268758729404,0.15865300868884779828,6.142499304672373718,-0.02477993752695979671,-12.788970348199193595
0.017000000000000008,4.8712304395437951107,0.1685724338451340897,6.14247373707250253,-0.026356067796796424293,-12.788970348199193606
0.01800000000000001,4.871403971963552981,0.17849251897588150028,6.142446590876741471,-0.027937178184482180496,-12.788970348199193614
0.01900000000000001,4.8715874248149941056,0.18841330385377492666,6.142417860958329734,-0.029523561985666026259,-12.7889703481991936305
0.02000000000000001,4.871780798817819766,0.19833482841513234875,6.1423875418971810906,-0.031115512556115757554,-12.788970348199193641
0.02100000000000001,4.871984094731753244,0.20825713276917983851,6.1423556279798220336,-0.03271332331520847039,-12.788970348199193659
0.022000000000000013,4.872197313356717375,0.21818025720735647695,6.14232211319932641,-0.034317287749445581487,-12.7889703481991936634
0.023000000000000013,4.8724204555330214313,0.22810424221265075945,6.1422869912552465295,-0.035927699415993734915,-12.788970348199193679
0.024000000000000014,4.872653522141557349,0.2380291284689700713,6.1422502555535407167,-0.037544851946252930876,-12.788970348199193682
0.025000000000000015,4.8728965141040053496,0.24795495687054481534,6.142211899206497281,-0.039169039049453218563,-12.788970348199193706
0.026000000000000016,4.8731494323830489763,0.25788176853136877528,6.142171915032654879,-0.0408005545162813015,-12.788970348199193717
0.027000000000000017,4.8734122779825995967,0.26780960479467729924,6.1421302955567192283,-0.042439692222538409956,-12.788970348199193721
0.028000000000000018,4.8736850519480303993,0.2777385072424648886,6.142087033009476152,-0.04408674613283080211,-12.788970348199193738
0.02900000000000002,4.873967755366419926,0.2876685177050437792,6.1420421193277009125,-0.045742010304294262274,-12.7889703481991937484
0.03000000000000002,4.874260389366805189,0.29759967827064510204,6.1419955461540638093,-0.047405778890353971776,-12.788970348199193752
0.03100000000000002,4.874562955120444409,0.307532031295064213,6.14194730483703199,-0.049078346144521135607,-12.788970348199193769
0.03200000000000002,4.8748754538410894194,0.31746561941135178082,6.1418973864307674516,-0.050760006424227755475,-12.788970348199193782
0.03300000000000002,4.8751978867852677874,0.32740048553955222523,6.1418457816950211866,-0.05245105419470094769,-12.788970348199193794
0.03400000000000002,4.8755302552525746976,0.33733667289649109714,6.141792481095023433,-0.054151784032878212466,-12.788970348199193801
0.035000000000000024,4.8758725605859746487,0.3472742250056129947,6.1417374748013699895,-0.055862490631365069482,-12.788970348199193823
0.036000000000000025,4.8762248041721130104,0.35721318570687161025,6.1416807526899045485,-0.05758346880243648278,-12.788970348199193836
0.037000000000000026,4.8765869874416375024,0.36715359916667350367,6.1416223043415970107,-0.05931501348208350692,-12.788970348199193842
0.03800000000000003,4.876959111869529642,0.37709550988787720024,6.1415621190424177223,-0.061057419734106594994,-12.788970348199193846
0.03900000000000003,4.877341178975446218,0.38703896271984921092,6.1415001857832076004,-0.06281098275425701801,-12.788970348199193858
0.04000000000000003,4.877733190324070852,0.396984002868578575,6.1414364932595440936,-0.06457599787442785432,-12.788970348199193878
0.04100000000000003,4.878135147525475702,0.4069306759068515264,6.1413710298716029192,-0.06635276056689601706,-12.788970348199193891
0.04200000000000003,4.878547052235493374,0.41687902778448788534,6.1413037837240155394,-0.06814156644861679679,-12.788970348199193906
0.04300000000000003,4.8789689061560990993,0.42682910483864077914,6.1412347426257223116,-0.0699427112855724062,-12.788970348199193918
0.04400000000000003,4.8794007110358032443,0.43678095380416129685,6.1411638940898212657,-0.07175649099717602332,-12.788970348199193923
0.04500000000000003,4.8798424686700542204,0.44673462182402968285,6.141091225333412446,-0.07358320166073283929,-12.7889703481991939315
0.046000000000000034,4.880294180901651855,0.45669015645985467692,6.141016723277437765,-0.075423139515959626774,-12.78897034819919395
0.047000000000000035,4.8807558496211712992,0.46664760570244260808,6.1409403745465163072,-0.0772766009695643547,-12.788970348199193974
0.048000000000000036,4.8812274767673975388,0.47660701798243785171,6.1408621654687750224,-0.07914388259988738523,-12.7889703481991939904
0.04900000000000004,4.8817090643277705852,0.48656844218103625937,6.1407820820756747458,-0.08102528116160579872,-12.78897034819919401
0.05000000000000004,4.8822006143388414125,0.49653192764077317211,6.1407001101018314835,-0.08292109359050240247,-12.788970348199194026
0.05100000000000004,4.882702128886738724,0.5064975241763876295,6.1406162349848328933,-0.08483161700830098922,-12.788970348199194041
0.05200000000000004,4.8832136101076466196,0.51646528208576438635,6.1405304418650499,-0.086757148727569421184,-12.788970348199194059
0.05300000000000004,4.883735060188293245,0.5264352521609553498,6.140442715585443368,-0.088697986256692125784,-12.78897034819919407
0.05400000000000004,4.8842664813664505054,0.5364074856992820521,6.1403530406913657707,-0.090654427304913599006,-12.78897034819919409
0.05500000000000004,4.884807875931444918,0.54638203451452077114,6.1402614014303577798,-0.0926267697874545223,-12.788970348199194105
0.05600000000000004,4.885359246224679696,0.55635895094817191587,6.1401677817519396967,-0.094615311830702109005,-12.788970348199194119
0.057000000000000044,4.885920594640168144,0.56633828788081528916,6.140072165307397663,-0.096620351777476306015,-12.788970348199194134
0.058000000000000045,4.886491923625078448,0.57632009874355284463,6.1399745354495645602,-0.098642188192373485934,-12.788970348199194149
0.059000000000000045,4.8870732356802899597,0.5863044375295405531,6.1398748752325955276,-0.10068111986718927493,-12.788970348199194153
0.060000000000000046,4.887664533360961053,0.59629135880561099194,6.139773167411738022,-0.10273744582642217064,-12.788970348199194163
0.06100000000000005,4.88826581927710865,0.6062809177239882738,6.139669394443096325,-0.104811465332859613835,-12.7889703481991941865
0.06200000000000005,4.8888770960941995074,0.61627317003409692804,6.1395635384833904258,-0.106903477893248186695,-12.788970348199194197
0.06300000000000004,4.889498366533753364,0.6262681720944663487,6.1394555813897091954,-0.109013783264049619225,-12.788970348199194202
0.06400000000000004,4.890129633373958038,0.6362659808847324227,6.1393455047192577534,-0.11114268145728429426,-12.7889703481991942255
0.06500000000000004,4.8907708994502965727,0.64626665401773794904,6.1392332897290989506,-0.11329047274646394947,-12.788970348199194241
0.06600000000000004,4.8914221676561865375,0.65627024975173345973,6.1391189173758888746,-0.115457457672615283054,-12.788970348199194253
0.06700000000000005,4.8920834409436315788,0.66627682700268005256,6.1390023683156062853,-0.11764393705039617752,-12.788970348199194265
0.06800000000000005,4.892754722323885324,0.6762864453566558418,6.138883622903275884,-0.119850211974306263136,-12.788970348199194283
0.06900000000000005,4.893436014868127746,0.68629916508236763254,6.1387626611926853297,-0.12207658382499354972,-12.788970348199194301
0.07000000000000005,4.894127321708154091,0.69631504714376942194,6.1386394629360958933,-0.12432335427565886197,-12.788970348199194309
0.07100000000000005,4.8948286460370764826,0.7063341532127893273,6.1385140075839466625,-0.12659082529855981943,-12.788970348199194317
0.07200000000000005,4.8955399911100383036,0.7163565456821665384,6.1383862742845521922,-0.12887929917161610814,-12.7889703481991943304
0.07300000000000005,4.896261360244941471,0.72638228767839988853,6.1382562418837934948,-0.13118907848511779539,-12.788970348199194346
0.07400000000000005,4.8969927568231867198,0.73641144307480963335,6.1381238889248022727,-0.13352046614853844426,-12.788970348199194371
0.07500000000000005,4.8977341842904269986,0.7464440765047140256,6.1379891936476382863,-0.13587376539745478795,-12.788970348199194386
0.07600000000000005,4.89848564615733411,0.7564802533747222657,6.137852133988959742,-0.13824927980057472711,-12.78897034819919441
0.07700000000000005,4.8992471460003786917,0.76652003987814540636,6.1377126875816866046,-0.14064731326687541624,-12.7889703481991944215
0.07800000000000006,4.900018687462623679,0.7765635030085267815,6.137570831754656709,-0.14306817005285320636,-12.788970348199194449
0.07900000000000006,4.900800274254531346,0.7866107105732935255,6.1374265435322745716,-0.14551215476988721314,-12.788970348199194456
0.08000000000000006,4.9015919101547840734,0.7966617312075307414,6.1372797996341527786,-0.14797957239171827818,-12.788970348199194476
0.08100000000000006,4.90239359901111894,0.8067166343878798707,6.1371305764747458326,-0.15047072826204509227,-12.78897034819919449
0.08200000000000006,4.903205344741176282,0.816775490446562808,6.136978850162976349,-0.15298592810223924602,-12.788970348199194502
0.08300000000000006,4.9040271513333623405,0.826838370585533298,6.1368245965018534765,-0.15552547801918097166,-12.788970348199194524
0.08400000000000006,4.904859022847726119,0.83690534689075714054,6.136667790988083417,-0.1580896845132173353,-12.788970348199194542
0.08500000000000006,4.9057009634168505935,0.84697649234662272344,6.1365084088116719305,-0.16067885448624463445,-12.788970348199194567
0.08600000000000006,4.906552977246758392,0.8570518808504833884,6.1363464248555186914,-0.16329329524991674925,-12.788970348199194604
0.08700000000000006,4.9074150686178320884,0.8671315872273331279,6.1361818136950033718,-0.1659333145339811885,-12.7889703481991946375
0.08800000000000006,4.9082872418857492348,0.8772156872446170971,6.13601454959756333,-0.16859922049474456285,-12.788970348199194656
0.08900000000000007,4.9091695014824322783,0.88730425762717841226,6.1358446065222627605,-0.17129132172366920765,-12.7889703481991946765
0.09000000000000007,4.9100618519170134866,0.89739737607234269437,6.1356719581193531854,-0.17400992725610266602,-12.788970348199194695
0.09100000000000007,4.9109642977768150325,0.9074951212651418015,6.1354965777298251495,-0.17675534658014172954,-12.788970348199194726
0.09200000000000007,4.9118768437283443678,0.91759757289367817714,6.1353184383849509826,-0.17952788964563271984,-12.788970348199194748
0.09300000000000007,4.912799494518305039,0.9277048116646312273,6.13513751280581849,-0.18232786687330967698,-12.788970348199194779
0.09400000000000007,4.9137322549746230735,0.93781691931890711874,6.134953773402855441,-0.18515558916407210298,-12.788970348199194799
0.09500000000000007,4.914675130007489095,0.94793397864743337487,6.1347671922753447015,-0.18801136790840388808,-12.78897034819919483
0.09600000000000007,4.9156281246104163002,0.9580560735070996218,6.1345777412109298867,-0.19089551499593502552,-12.788970348199194857
0.09700000000000007,4.9165912438613144538,0.9681832888368458204,6.1343853916851113677,-0.19380834282514769625,-12.788970348199194883
0.09800000000000007,4.9175644929235800447,0.97831571067389929363,6.1341901148607325092,-0.1967501643132282784,-12.7889703481991949055
0.09900000000000007,4.918547877047202755,0.98845342617016183597,6.133991881587455978,-0.19972129290606680756,-12.788970348199194928
0.10000000000000007,4.9195414015698883904,0.99859652360874816637,6.1337906624012299766,-0.2027220425884053829,-12.7889703481991949445
0.10100000000000008,4.9205450719181984265,1.0087450924206769585,6.1335864275237442535,-0.20575272789413698005,-12.788970348199194978
0.10200000000000008,4.92155889360870632,1.0188992232017156533,6.133379146861875742,-0.20881366391675609573,-12.788970348199195001
0.10300000000000008,4.9225828722491707474,1.0290590077293802279,6.1331687900071236667,-0.21190516631996260928,-12.7889703481991950235
0.10400000000000008,4.923617013539725918,1.0392245389800910645,6.1329553262350339753,-0.2150275513484202048,-12.7889703481991950556
0.10500000000000008,4.9246613232740891197,1.0493959111464860264,6.132738724504612927,-0.2181811358386706519,-12.788970348199195087
0.10600000000000008,4.92571580734078566,1.0595732196548918133,6.1325189534577296954,-0.22136623723020519485,-12.788970348199195117
0.10700000000000008,4.9267804717243913575,1.0697565611829546296,6.132295981418507815,-0.22458317357669424819,-12.788970348199195147
0.10800000000000008,4.927855322506792743,1.079946033677431159,6.1320697763927053212,-0.22783226355737654141,-12.78897034819919518
0.10900000000000008,4.928940365868465132,1.0901417363721407974,6.1318403060670834204,-0.23111382648860879665,-12.78897034819919521
0.11000000000000008,4.9300356080897687317,1.1003437698060800465,6.131607537808763532,-0.23442818233557696022,-12.788970348199195228
0.11100000000000008,4.9311410555522629446,1.1105522358416999289,6.1313714386645725325,-0.23777565172416994206,-12.788970348199195258
0.11200000000000009,4.932256714740039027,1.1207672376833472325,6.13113197536037605,-0.24115655595301674638,-12.7889703481991952845
0.11300000000000009,4.933382592241071275,1.1309888798958703359,6.130889114300399638,-0.24457121700568780073,-12.788970348199195309
0.11400000000000009,4.9345186947485869004,1.1412172684233903185,6.1306428215665376602,-0.24801995756306121134,-12.788970348199195344
0.11500000000000009,4.9356650290624547533,1.15145251060823799,6.1303930629176497363,-0.25150310101585458713,-12.7889703481991953695
0.11600000000000009,4.936821602090593074,1.161694715210057422,6.1301398037888445635,-0.25502097147732298525,-12.788970348199195395
0.11700000000000009,4.937988420850396426,1.1719439924250764917,6.1298830092907509617,-0.25857389379612343532,-12.788970348199195422
0.11800000000000009,4.939165492470181984,1.1822004539055448821,6.1296226442087759713,-0.2621621935693463994,-12.788970348199195452
0.11900000000000009,4.940352824190655345,1.1924642127793399103,6.1293586730023498312,-0.26578619715571441813,-12.788970348199195479
0.12000000000000009,4.941550423366396031,1.2027353836697404792,6.1290910598041576816,-0.26944623168894808033,-12.788970348199195511
0.1210000000000001,4.9427582974673628445,1.2130140827153693674,6.1288197684193578096,-0.27314262509129933582,-12.788970348199195539
0.1220000000000001,4.943976454080419255,1.223300427590303987,6.1285447623247862833,-0.2768757060872520446,-12.7889703481991955595
0.1230000000000001,4.945204900910878981,1.2335945375243556523,6.1282660046681478,-0.28064580421738952447,-12.788970348199195591
0.1240000000000001,4.9464436457840719307,1.2438965333235173071,6.1279834582671925845,-0.28445324985242871925,-12.788970348199195625
0.12500000000000008,4.9476926966469306785,1.254206537390579561,6.127697085608879166,-0.28829837420742046307,-12.788970348199195643
0.12600000000000008,4.9489520615695976437,1.264524673745914782,6.1274068488485228788,-0.2921815093561151614,-12.788970348199195669
0.12700000000000009,4.95022174874705313,1.2748510680484288838,6.1271127098089299074,-0.29610298824549304768,-12.7889703481991957
0.12800000000000009,4.9515017665007644066,1.2851858476166803343,6.126814629979516727,-0.3000631447104580015,-12.788970348199195731
0.1290000000000001,4.9527921232803559896,1.2955291414501657893,6.1265125705154147647,-0.30406231348869373578,-12.788970348199195762
0.1300000000000001,4.954092827665301293,1.3058810802507716315,6.1262064922365601217,-0.3081008302356809702,-12.7889703481991958015
0.1310000000000001,4.95540388836663581,1.3162417964443905654,6.1258963556267682035,-0.31217903153987400857,-12.788970348199195834
0.1320000000000001,4.956725314228692,1.3266114242027022748,6.125582120832793093,-0.31629725493803493005,-12.788970348199195865
0.1330000000000001,4.9580571142308560314,1.3369900994651170106,6.125263747663371507,-0.32045583893072338255,-12.78897034819919589
0.1340000000000001,4.9593992974893465523,1.3473779599608808207,6.124941195588251195,-0.32465512299793973766,-12.788970348199195921
0.1350000000000001,4.960751873259015645,1.3577751452313409733,6.1246144237372036083,-0.32889544761491912262,-12.788970348199195958
0.1360000000000001,4.9621148509351721266,1.3681817966523699623,6.1242833908990207117,-0.33317715426807359205,-12.788970348199195996
0.1370000000000001,4.9634882400554273503,1.3785980574569463006,6.1239480555204957707,-0.33750058547107943387,-12.788970348199196022
0.1380000000000001,4.9648720503015636696,1.3890240727578901291,6.123608375705387988,-0.34186608478110632538,-12.788970348199196049
0.1390000000000001,4.9662662915014257085,1.3994599895707514729,6.1232643092133708334,-0.3462739968151847616,-12.788970348199196074
0.1400000000000001,4.9676709736308345996,1.4099059568368487735,6.122915813458963947,-0.3507246672667078695,-12.788970348199196111
0.1410000000000001,4.969086106815525332,1.4203621254464551139,6.1225628455104484705,-0.35521844292206340037,-12.788970348199196143
0.1420000000000001,4.9705117013331073608,1.4308286482621293338,6.1222053620887656815,-0.35975567167739135423,-12.788970348199196177
0.1430000000000001,4.971947767615048618,1.4413056801421889925,6.121843319566398814,-0.36433670255546233562,-12.788970348199196205
0.1440000000000001,4.973394316248683066,1.4517933779643218997,6.121476673966237941,-0.36896188572267136986,-12.788970348199196247
0.1450000000000001,4.9748513579792419254,1.4622919006493326741,6.1211053809604278057,-0.3736315725061415196,-12.7889703481991962785
0.1460000000000001,4.976318903711908727,1.4728014091850205234,6.120729395869198498,-0.3783461154109312353,-12.788970348199196309
0.1470000000000001,4.9777969645138982935,1.4833220666501841577,6.1203486736596788773,-0.3831058681373389467,-12.788970348199196335
0.1480000000000001,4.979285551616559795,1.4938540382387494553,6.119963168944692638,-0.38791118559829795666,-12.788970348199196373
0.1490000000000001,4.9807846764175039878,1.5043974912840151909,6.1195728359815369456,-0.3927624239368542321,-12.788970348199196396
