t,phi1,v1,phi2,v2,energy
0.0,0.0022953188106297700913,0.0,4.3103680946284628206,0.0,-15.78150225911006243
0.001,0.0022962689338450192533,0.0019002341554245224644,4.310372982333747234,0.009775408273592828813,-15.78150225911006243
0.002,0.0022991192298403566583,0.0038003210100861319327,4.310387645435829157,0.01955078900469426885,-15.78150225911006243
0.003,0.002303869477664899406,0.0057001132639191766516,4.3104120838933954922,0.029326114652519765735,-15.781502259110062428
0.004,0.002310519309068338172,0.0075994636182527333845,4.310446297637593924,0.039101357679699129975,-15.781502259110062427
0.005,0.002319068208502680834,0.009498224776508486625,4.3104902865720371836,0.048876490553985459647,-15.781502259110062429
0.006,0.0023295155131246942665,0.011396249444899225473,4.3105440505728090314,0.058651485749966151253,-15.781502259110062429
0.007,0.0023418604127990450295,0.013293390333128163486,4.310607589488471945,0.06842631575077669466,-15.781502259110062429
0.008,0.002356101950102139872,0.015189500155089286465,4.3106809031400765285,0.078200953049817947906,-15.78150225911006243
0.009000000000000001,0.002372239020326667183,0.017084431629568932475,4.310763991321172635,0.08797537015247758745,-15.781502259110062433
0.010000000000000002,0.0023902703714868407244,0.018978037480948807807,4.310856853797822219,0.09774953957785642914,-15.781502259110062437
0.011000000000000003,0.00241019460432434718,0.020870170439910641751,4.310959490308613913,0.107523433860500315255,-15.781502259110062439
0.012000000000000004,0.0024320101723149992665,0.02276068324414268219,4.311071900564679341,0.11729702555213826229,-15.78150225911006244
0.013000000000000005,0.0024557153816760963407,0.02464942863904823295,4.311194084249711177,0.12707028722342756406,-15.781502259110062439
0.014000000000000005,0.002481308391374494651,0.026536259378456432843,4.3113260410199829437,0.13684319146570654441,-15.78150225911006244
0.015000000000000006,0.0025087872131353895697,0.028421028225335474909,4.311467770504370578,0.14661571089275565327,-15.781502259110062443
0.016000000000000007,0.0025381497114518123472,0.030303587952508463242,4.3116192723043757543,0.15638781814256759945,-15.781502259110062446
0.017000000000000008,0.0025693936035948441258,0.032183791343372103152,4.3117805459941509873,0.16615948587912721316,-15.7815022591100624465
0.01800000000000001,0.0026025164596245501376,0.034061491192618418907,4.311951591120526518,0.17593068679420173074,-15.78150225911006244
0.01900000000000001,0.0026375157024016372168,0.03593654030695969159,4.312132407203038997,0.18570139360914219347,-15.781502259110062441
0.02000000000000001,0.0026743886075998379377,0.03780879150585680789,4.3123229937339619716,0.19547157907669665192,-15.781502259110062446
0.02100000000000001,0.0027131323037190248893,0.039678097622251208583,4.3125233501783381954,0.2052412159828358665,-15.78150225911006244
0.022000000000000013,0.0027537437720990587706,0.041544311503300623586,4.312733475974013772,0.21501027714859219467,-15.781502259110062442
0.023000000000000013,0.0027962198469343741966,0.043407286011118778194,4.312953370531674137,0.22477873543191235403,-15.78150225911006244
0.024000000000000014,0.0028405572152893072687,0.045266874023519253017,4.3131830332348819086,0.23454656372952475023,-15.78150225911006244
0.025000000000000015,0.0028867524171141691587,0.047122928434763677556,4.313422463440116608,0.24431373497882205786,-15.781502259110062439
0.026000000000000016,0.0029348018452620701267,0.048975302156314435138,4.3136716604768162715,0.2540802221597597415,-15.781502259110062435
0.027000000000000017,0.0029847017455064985729,0.05082384811759205407,4.31393062364742097,0.26384599829677120384,-15.781502259110062439
0.028000000000000018,0.003036448216559659896,0.05266841926673745738,4.314199352227418249,0.27361103646070024576,-15.781502259110062435
0.02900000000000002,0.003090037210091580099,0.0545088685713792406,4.3144778454653905184,0.28337530977075152443,-15.781502259110062438
0.03000000000000002,0.0031454645307499792605,0.05634504901940614408,4.3147661025830643896,0.29313879139645969226,-15.781502259110062434
0.03100000000000002,0.0032027258361809201402,0.058176813619744883356,4.3150641227753620036,0.30290145455967790032,-15.781502259110062432
0.03200000000000002,0.0032618166370502373614,0.06000401540314349789,4.3153719052104543494,0.31266327253658634817,-15.7815022591100624335
0.03300000000000002,0.0033227322970657527694,0.061826507422960375222,4.315689449029816603,0.32242421865972156108,-15.781502259110062435
0.03400000000000002,0.0033854680330002827119,0.063644142755959104184,4.3160167533482855107,0.3321842663200270747,-15.781502259110062436
0.035000000000000024,0.0034500189147154431537,0.06545677450310930733,4.3163538172541188265,0.34194338896892620627,-15.7815022591100624335
0.036000000000000025,0.003516379865186258673,0.06726425579039359917,4.3167006398090568414,0.35170156012041758984,-15.781502259110062433
0.037000000000000026,0.0035845456605265815382,0.06906643976962081291,4.3170572200483860147,0.3614587533531941527,-15.781502259110062439
0.03800000000000003,0.0036545109300153272025,0.070863179619245634687,4.3174235569810047353,0.37121494231278620826,-15.781502259110062436
0.03900000000000003,0.0037262701561235326972,0.072654328545194780375,4.317799649589491246,0.38097010071372933984,-15.781502259110062439
0.04000000000000003,0.0037998176745422445238,0.0744397397816998457,4.31818549683017374,0.39072420234175774846,-15.781502259110062438
0.04100000000000003,0.0038751476742112427868,0.076219266592136956534,4.318581097633202667,0.40047722105602373655,-15.7815022591100624395
0.04200000000000003,0.003952254197348608429,0.07799276226987334163,4.3189864509026252735,0.41022913079134399805,-15.781502259110062442
0.04300000000000003,0.0040311311394811405484,0.07976008013912094594,4.319401555516462401,0.41997990556047338435,-15.781502259110062448
0.04400000000000003,0.0041117722494756308986,0.08152107355579719779,4.319826410326787572,0.42972951945640681335,-15.781502259110062453
0.04500000000000003,0.004194171129571002778,0.08327559590839303879,4.3202610141598083945,0.43947794665470998906,-15.7815022591100624525
0.046000000000000034,0.00427832123541132162,0.085023500618848320403,4.3207053658159503104,0.44922516141587959587,-15.781502259110062452
0.047000000000000035,0.0043642158760796847113,0.086764641143434666435,4.321159464069942718,0.45897113808773363177,-15.781502259110062451
0.048000000000000036,0.0044518482141329975416,0.08849887097364589532,4.3216233076709075016,0.46871585110783254189,-15.7815022591100624525
0.04900000000000004,0.0045412112656376443904,0.09022604363709609145,4.322096895342449998,0.47845927500593181392,-15.7815022591100624525
0.05000000000000004,0.004632297900206060849,0.091946012698425409146,4.3225802257827524305,0.48820138440646669353,-15.781502259110062453
0.05100000000000004,0.004725100841034216043,0.093658631760213687575,4.323073297664669846,0.4979421540310696777,-15.781502259110062454
0.05200000000000004,0.004819612664940012408,0.095363754463901949806,4.3235761096358285827,0.5076815587011214418,-15.781502259110062457
0.05300000000000004,0.004915825802402610932,0.097061234490721853096,4.324088660318727311,0.51741957334033585443,-15.78150225911006246
0.05400000000000004,0.005013732537602689851,0.09875092556263315215,4.324610948310840669,0.5271561729773797328,-15.7815022591100624595
0.05500000000000004,0.00511332500846364484,0.10043268144326923104,4.3251429721847255466,0.53689133274852798914,-15.781502259110062465
0.05600000000000004,0.0052145952066937387875,0.102106355938890753876,4.3256847304881300294,0.5466250279003548176,-15.781502259110062468
0.057000000000000044,0.005317534977829209299,0.103771802899347477767,4.3262362217441050634,0.55635723379246156893,-15.78150225911006247
0.058000000000000045,0.005422136021278342115,0.10542887621904826583,4.326797444451118859,0.56608792590024195813,-15.781502259110062466
0.059000000000000045,0.005528389890366518649,0.107077429837939331655,4.3273683970831740855,0.5758170798176852495,-15.781502259110062468
0.060000000000000046,0.0056362879923822459005,0.10871731774249074003,4.3279490780899278783,0.5855446712602180603,-15.781502259110062466
0.06100000000000005,0.0057458215886241770057,0.11034839396669118234,4.3285394858968147197,0.59527067606758542336,-15.781502259110062472
0.06200000000000005,0.005856981794449130701,0.111970512593051038475,4.3291396189051722094,0.60499507020677174753,-15.7815022591100624725
0.06300000000000004,0.0059697595793211179985,0.11358352775361373018,4.329749475492369785,0.6147178297749623105,-15.781502259110062475
0.06400000000000004,0.0060841457668613843606,0.11518729363097536397,4.330369054011940418,0.62443893100254592037,-15.781502259110062474
0.06500000000000004,0.0062001310348994756534,0.116781664459312654694,4.3309983527937153387,0.63415835025615937626,-15.781502259110062477
0.06600000000000004,0.006317705915525336165,0.118366494525419113784,4.331637370143961821,0.64387606404177436046,-15.781502259110062476
0.06700000000000005,0.0064368607951424469284,0.11994163816974947896,4.3322861043455240817,0.65359204900782738855,-15.781502259110062476
0.06800000000000005,0.006557585914522012588,0.12150694978747235472,4.3329445536579673263,0.66330628194839344507,-15.781502259110062478
0.06900000000000005,0.00667987136885820499,0.12306228382953102562,4.3336127163177249936,0.6730187398064039284,-15.78150225911006248
0.07000000000000005,0.0068037071078244716625,0.124607494803712396726,4.334290590538249239,0.6827293996769095271,-15.781502259110062478
0.07100000000000005,0.0069290829356309172672,0.12614243727572400774,4.3349781745101647057,0.69243823881038864845,-15.781502259110062475
0.07200000000000005,0.007055988511082766087,0.12766696587027905975,4.3356754664014256254,0.702145234616102016,-15.781502259110062477
0.07300000000000005,0.0071844133476399135113,0.12918093527218938543,4.336382464357476296,0.711850364665494053,-15.781502259110062479
0.07400000000000005,0.007314346813477574434,0.13068420022746628555,4.337099166501414986,0.7215536066956416649,-15.781502259110062476
0.07500000000000005,0.0074457781315480363867,0.13217661554442914621,4.337825570934161314,0.73125493861275103345,-15.781502259110062477
0.07600000000000005,0.0075786963796435251383,0.13365803609482174359,4.3385616757346271437,0.74095433849570302946,-15.781502259110062478
0.07700000000000005,0.007713090490460190403,0.1351283168149361335,4.339307478959891052,0.750651784599647854,-15.781502259110062477
0.07800000000000006,0.007848949251663219186,0.13658731270674401588,4.3400629786453764182,0.76034725535964951137,-15.781502259110062478
0.07900000000000006,0.007986261305953084173,0.13803487883903545429,4.340828172805033179,0.7700407293943807176,-15.781502259110062476
0.08000000000000006,0.008125015151132934482,0.13947087034856482279,4.3416030594315233085,0.779732185509868844,-15.781502259110062483
0.08100000000000006,0.008265199140177135895,0.14089514244120384314,4.342387636496410063,0.78942160270329349455,-15.781502259110062486
0.08200000000000006,0.008406801481300967633,0.14230755039310156651,4.343181901950351059,0.7991089601668363135,-15.78150225911006249
0.08300000000000006,0.00854981023803148251,0.1437079495518511446,4.343985853723295217,0.8087942372915836159,-15.781502259110062489
0.08400000000000006,0.008694213329279537181,0.14509619533766322592,4.344799489724683645,0.8184774136714824338,-15.7815022591100624924
0.08500000000000006,0.008839998529412999042,0.14647214324454580346,4.3456228078436544946,0.82815846910735056626,-15.781502259110062491
0.08600000000000006,0.00898715346833113611,0.1478356488414903312,4.3464558059492518645,0.837837383610941221,-15.7815022591100624985
0.08700000000000006,0.0091356656315401960854,0.14918656777366391592,4.3472984818906387863,0.8475141374090628317,-15.781502259110062506
0.08800000000000006,0.009285522360230180558,0.15052475576360738291,4.348150833497314365,0.85718871094775463327,-15.781502259110062509
0.08900000000000007,0.009436710851352820126,0.15185006861243900255,4.349012858579335123,0.8668610848965185763,-15.781502259110062512
0.09000000000000007,0.009589218157700755976,0.15316236220106365623,4.3498845549275405994,0.87653124015260815664,-15.781502259110062517
0.09100000000000007,0.009743031187987933261,0.15446149249138720911,4.350765920313783271,0.88619915784537473804,-15.781502259110062521
0.09200000000000007,0.009898136706931211349,0.15574731552753584755,4.351656952491162849,0.8958648193406719387,-15.781502259110062527
0.09300000000000007,0.010054521335333195783,0.15701968743708012847,4.3525576491942650046,0.9055282062453186544,-15.781502259110062527
0.09400000000000007,0.0102121715501662965475,0.15827846443226347781,4.3534680081394045935,0.91518930041162128666,-15.781502259110062531
0.09500000000000007,0.010371073684658016935,0.15952350281123486446,4.354388027024873428,0.92484808394195574193,-15.781502259110062531
0.09600000000000007,0.010531213928377477056,0.16075465895928536546,4.3553177035311926627,0.9345045391934097669,-15.781502259110062535
0.09700000000000007,0.010692578327323175747,0.1619717893500883279,4.356257035321369853,0.9441586487824861811,-15.781502259110062536
0.09800000000000007,0.010855152784011994303,0.16317475054694282133,4.3572060200411607484,0.95381039558986756754,-15.781502259110062543
0.09900000000000007,0.011018923057569445179,0.16436339920402006459,4.3581646553193358774,0.9634597627652429787,-15.781502259110062547
0.10000000000000007,0.0111838747638211684675,0.16553759206761249873,4.3591329387679519968,0.9731067337321972133,-15.781502259110062553
0.10100000000000008,0.011349993375385678637,0.16669718597738516766,4.360110867982628456,0.9827512921931632175,-15.781502259110062556
0.10200000000000008,0.011517264221768363651,0.16784203786762905566,4.3610984405428285496,0.9923934221344381615,-15.78150225911006256
0.10300000000000008,0.011685672489456738262,0.16897200476851602085,4.3620956540121459157,1.0020331078312637413,-15.781502259110062567
0.10400000000000008,0.011855203222016952874,0.17008694380735495082,4.3631025059385960467,1.011670333852971252,-15.781502259110062573
0.10500000000000008,0.012025841320191559015,0.17118671220984875603,4.3641189938549129796,1.0213050850681919782,-15.781502259110062579
0.10600000000000008,0.0121975715419985320576,0.17227116730135180427,4.3651451152788512283,1.030937346650133445,-15.7815022591100625835
0.10700000000000008,0.012370378502831551426,0.17334016650812738806,4.3661808677134930257,1.0405671040819220695,-15.781502259110062586
0.10800000000000008,0.0125442466755615381126,0.17439356735860480428,4.3672262486475609423,1.0501943431620127532,-15.781502259110062589
0.10900000000000008,0.012719160390639448893,0.17543122748463561408,4.3682812555557359465,1.0598190500096659522,-15.781502259110062595
0.11000000000000008,0.012895103836200326218,0.17645300462274863809,4.369345885898980977,1.0694412110704927609,-15.781502259110062591
0.11100000000000008,0.013072061058168602268,0.1774587566154032306,4.3704201371248700965,1.0790608131220685422,-15.781502259110062594
0.11200000000000009,0.013250015960364655234,0.17844834141224036293,4.3715040066679232895,1.0886778432796156369,-15.7815022591100626
0.11300000000000009,0.013428952304612615382,0.17942161707133103485,4.372597491949946979,1.0982922890017556833,-15.7815022591100626
0.11400000000000009,0.013608853710849417991,0.18037844176042151927,4.3737005903803803345,1.1079041380963320729,-15.781502259110062608
0.11500000000000009,0.013789703657235099735,0.18131867375817493347,4.37481329935664743,1.1175133787263030726,-15.781502259110062607
0.11600000000000009,0.013971485480264334593,0.18224217145540861714,4.375935616264515339,1.1271199994157061375,-15.781502259110062611
0.11700000000000009,0.01415418237487920481,0.18314879335632678413,4.3770675384784582243,1.1367239890556939363,-15.781502259110062617
0.11800000000000009,0.014337777394583201922,0.18403839807974790284,4.378209063362027499,1.1463253369106426166,-15.78150225911006262
0.11900000000000009,0.014522253451556452303,0.1849108443603262457,4.3793601882682281394,1.1559240326243328277,-15.78150225911006263
0.12000000000000009,0.0147075933167721610885,0.18576599104976703635,4.3805209105399012044,1.1655200662262040222,-15.7815022591100626356
0.1210000000000001,0.014893779620114267824,0.18660369711803460866,4.381691227510112657,1.1751134281376825559,-15.781502259110062637
0.1220000000000001,0.015080794850496306514,0.18742382165455297924,4.382871136502548546,1.1847041091785841038,-15.781502259110062645
0.1230000000000001,0.015268621355981462201,0.18822622386939822099,4.384060634831916624,1.1942921005735909075,-15.781502259110062655
0.1240000000000001,0.015457241343903815558,0.18901076309448201171,4.3852597198043544863,1.2038773939588043734,-15.78150225911006266
0.12500000000000008,0.015646636880990766354,0.18977729878472571858,4.386468388717844299,1.2134599813883735334,-15.781502259110062663
0.12600000000000008,0.015836789893486625989,0.19052569051922436462,4.387686638862634192,1.2230398553411998849,-15.781502259110062671
0.12700000000000009,0.016027682167277368682,0.19125579800239981033,4.388914467521666393,1.2326170087277191218,-15.781502259110062675
0.12800000000000009,0.016219295348016530132,0.191967481065142469,4.3901518719710121903,1.2421914348967602735,-15.781502259110062684
0.1290000000000001,0.01641161094125224191,0.19266059966594086037,4.3913988494803137823,1.2517631276424827606,-15.781502259110062688
0.1300000000000001,0.016604610312555388995,0.19333501389199829325,4.392655397313233114,1.2613320812113918827,-15.781502259110062695
0.1310000000000001,0.016798274687648877271,0.19399058396033595315,4.3939215127279077602,1.2708982903094332491,-15.781502259110062704
0.1320000000000001,0.01699258515253799702,0.19462717021888165689,4.3951971929774139476,1.2804617501091666679,-15.781502259110062714
0.1330000000000001,0.017187522653641867662,0.19524463314754352149,4.3964824353102367883,1.2900224562570200009,-15.781502259110062721
0.1340000000000001,0.017383067997925948319,0.19584283335926778041,4.39777723697074781,1.2995804048806235019,-15.781502259110062729
0.1350000000000001,0.01757920185303559795,0.19642163160107996502,4.399081595199689857,1.3091355925962251483,-15.781502259110062735
0.1360000000000001,0.017775904747430668002,0.19698088875510865524,4.4003955072346694517,1.3186880165161874814,-15.781502259110062744
0.1370000000000001,0.017973157070521109768,0.1975204658395909877,4.40171897031065669,1.3282376742565664671,-15.7815022591100627474
0.1380000000000001,0.018170939072803577792,0.19804022400985909541,4.4030519816604927596,1.3377845639447728951,-15.78150225911006275
0.1390000000000001,0.018369230865999009821,0.19854002455930663788,4.4043945385154051613,1.3473286842273168297,-15.781502259110062762
0.1400000000000001,0.018568012423191162983,0.1990197289203345652,4.4057466381055307107,1.3568700342776356293,-15.78150225911006277
0.1410000000000001,0.018767263578966084975,0.19947919866527524506,4.4071082776604464195,1.3664086138040060543,-15.781502259110062779
0.1420000000000001,0.018966964029552498207,0.19991829550729406591,4.4084794544097083238,1.3759444230575409815,-15.781502259110062781
0.1430000000000001,0.019167093332963073886,0.20033688130126761443,4.4098601655833983555,1.3854774628402712467,-15.781502259110062791
0.1440000000000001,0.019367630909136572216,0.20073481804463751004,4.4112504084126793343,1.395007734513313136,-15.781502259110062799
0.1450000000000001,0.019568556040080823844,0.20111196787823896386,4.4126501801303581753,1.4045352400051220556,-15.7815022591100628056
0.1460000000000001,0.01976984787001652685,0.2014681930871031136,4.41405947797145739,1.4140599818198329011,-15.781502259110062811
0.1470000000000001,0.019971485405521832552,0.20180335610123217058,4.415478299173794972,1.4235819630456876596,-15.7815022591100628194
