t,phi1,v1,phi2,v2,energy
0.0,1.553217369910372625,0.0,3.515830270802506874,0.0,8.786135090122036158
0.001,1.5532124492545598405,-0.0098413161484841896595,3.5158301848371680065,-0.00017195478331873536012,8.786135090122036152
0.002,1.5531976872599837187,-0.01968268657296243081,3.515829926796517693,-0.00034419883440346796074,8.786135090122036147
0.003,1.5531730838452282177,-0.029524165554897333593,3.5158294962466527444,-0.000517021425126772397,8.7861350901220361415
0.004,1.5531386388745908206,-0.039365807386687346485,3.5158288924643943346,-0.0006907118355743380087,8.786135090122036136
0.005,1.5530943521580688672,-0.04920766637713147772,3.5158281144372777348,-0.00086555935815142569403,8.786135090122036129
0.006,1.5530402234513404223,-0.05904979685689017911,3.5158271608635379393,-0.0010418533016892025432,8.786135090122036124
0.007,1.5529762524557396863,-0.06889225318394111248,3.5158260301520911882,-0.0012198829955509110712,8.78613509012203612
0.008,1.552902438818226952,-0.07873508974902851837,3.5158247204225123814,-0.0013999377937378276787,8.7861350901220361155
0.009000000000000001,1.5528187821313531172,-0.088578360981104906146,3.5158232295050083872,-0.0015823070789949622775,8.786135090122036109
0.010000000000000002,1.5527252819332187591,-0.09842212135276378389,3.5158215549403872466,-0.0017672802669164478215,8.786135090122036103
0.011000000000000003,1.552621937707427781,-0.10826642538566214541,3.5158196939800232723,-0.001955146810050564699,8.786135090122036096
0.012000000000000004,1.5525087488830356425,-0.11811132765593143102,3.5158176435858180403,-0.0021461962020043406973,8.786135090122036093
0.013000000000000005,1.5523857148344921844,-0.12795688279957567724,3.5158154004301572807,-0.0023407179815476623717,8.786135090122036089
0.014000000000000005,1.5522528348815790635,-0.13780314551785556963,3.5158129608958636626,-0.0025390017367168283355,8.7861350901220360825
0.015000000000000006,1.5521101082893418097,-0.14765017058265711144,3.5158103210761454747,-0.0027413371089174690536,8.786135090122036078
0.016000000000000007,1.5519575342680165238,-0.15749801284184361923,3.5158074767745412083,-0.0029480137970267513157,8.786135090122036072
0.017000000000000008,1.5517951119729512311,-0.16734672722458975505,3.515804423504860031,-0.0031593215614947785663,8.786135090122036067
0.01800000000000001,1.5516228405045219115,-0.177196368746696303,3.5158011564911181661,-0.0033755502284450907976,8.786135090122036061
0.01900000000000001,1.5514407189080432241,-0.18704699251588439606,3.5157976706674711684,-0.0035969896937741596297,8.786135090122036059
0.02000000000000001,1.5512487461736739488,-0.19689865373706789713,3.5157939606781421016,-0.003823929927249765657,8.786135090122036056
0.02100000000000001,1.5510469212363171671,-0.20675140771760263585,3.5157900208773456192,-0.0040566609766081360147,8.786135090122036051
0.022000000000000013,1.5508352429755152058,-0.21660530987251120086,3.5157858453292079477,-0.0042954729716497104423,8.786135090122036048
0.023000000000000013,1.5506137102153393683,-0.22646041572968198446,3.5157814278076827746,-0.004540656128333394002,8.7861350901220360435
0.024000000000000014,1.5503823217242744807,-0.23631678093504117404,3.5157767617964630444,-0.0047925007528691438075,8.786135090122036042
0.025000000000000015,1.5501410762150982791,-0.24617446125769638227,3.5157718404888886614,-0.0050512972458087259288,8.786135090122036038
0.026000000000000016,1.5498899723447556696,-0.2560335125950506051,3.5157666567878501033,-0.0053173361061344668136,8.786135090122036033
0.027000000000000017,1.5496290087142278887,-0.26589399097788519316,3.5157612033056879477,-0.0055909079353458112394,8.7861350901220360305
0.028000000000000018,1.5493581838683965958,-0.2757559525754105203,3.5157554723640883122,-0.0058723034415434859676,8.786135090122036026
0.02900000000000002,1.5490774962959029339,-0.28561945370028302818,3.5157494559939742118,-0.00616181344351105486,8.786135090122036022
0.03000000000000002,1.5487869444290015893,-0.29548455081358732417,3.5157431459353928381,-0.0064597288747936372835,8.786135090122036017
0.03100000000000002,1.5484865266434098872,-0.30535130052978200435,3.5157365336373987575,-0.0067663407877735471734,8.786135090122036011
0.03200000000000002,1.5481762412581519605,-0.31521975962160787222,3.5157296102579330386,-0.0070819403577425951322,8.786135090122036007
0.03300000000000002,1.5478560865353980297,-0.32508998502495721738,3.5157223666636983083,-0.0074068188869707803733,8.786135090122036004
0.03400000000000002,1.5475260606802988333,-0.33496203384370281658,3.5157147934300297407,-0.0077412678087710833045,8.786135090122036001
0.035000000000000024,1.5471861618408152503,-0.34483596335448531432,3.5157068808407619825,-0.008085578691560052899,8.786135090122035997
0.036000000000000025,1.546836388107543157,-0.35471183101145763603,3.515698618888092023,-0.0084400432429138658795,8.786135090122035996
0.037000000000000026,1.5464767375135335595,-0.3645896944509850837,3.5156899972724380064,-0.00880495331361951709,8.786135090122035995
0.03800000000000003,1.5461072080341080515,-0.3744696114962997574,3.5156810054022939994,-0.009180600901720782219,8.78613509012203599
0.03900000000000003,1.5457277975866696397,-0.38435164016210794318,3.5156716323940807116,-0.0095672781565585753145,8.786135090122035985
0.04000000000000003,1.5453385040305089857,-0.3942358386591491024,3.515661867071992183,-0.009965277382805304221,8.786135090122035982
0.04100000000000003,1.5449393251666061139,-0.4041222653987050922,3.515651697967838436,-0.010374891044492807367,8.7861350901220359785
0.04200000000000003,1.5445302587374276362,-0.41401097899705824266,3.5156411133208841059,-0.010796411769033434927,8.786135090122035977
0.04300000000000003,1.5441113024267195436,-0.42390203827989691017,3.5156301010776830531,-0.01123013235123381654,8.786135090122035972
0.04400000000000003,1.5436824538592956209,-0.4337955022866671216,3.5156186488919089644,-0.011676345757300836422,8.78613509012203597
0.04500000000000003,1.543243710600821535,-0.44369143027486891817,3.5156067441241819534,-0.012135345128839314746,8.786135090122035966
0.046000000000000034,1.5427950701575946573,-0.45358988172429600232,3.5155943738418911682,-0.01260742378684087175,8.786135090122035965
0.047000000000000035,1.5423365299763196735,-0.46349091634121728465,3.5155815248190134127,-0.01309287523566342806,8.786135090122035961
0.048000000000000036,1.5418680874438800429,-0.47339459406249892275,3.5155681835359277947,-0.0135919931670007712065,8.786135090122035959
0.04900000000000004,1.5413897398871053654,-0.48330097505966543696,3.5155543361792264117,-0.014105071463841594299,8.786135090122035959
0.05000000000000004,1.5409014845725347183,-0.49321011974289848213,3.5155399686415210788,-0.014632404204417388266,8.786135090122035957
0.05100000000000004,1.5404033187061760265,-0.50312208876497184734,3.5155250665212461178,-0.015174285666138544011,8.786135090122035958
0.05200000000000004,1.5398952394332615298,-0.5130369430251212506,3.515509615122457215,-0.015731010329517995216,8.786135090122035957
0.05300000000000004,1.5393772438379994137,-0.52295474367284748595,3.5154935994546263633,-0.01630287288208170643,8.786135090122035953
0.05400000000000004,1.5388493289433216716,-0.53287555211165147664,3.515477004232432898,-0.016890168222265284398,8.7861350901220359524
0.05500000000000004,1.5383114917106282654,-0.54279943000269977846,3.515459813875550646,-0.01749319146329596348,8.7861350901220359524
0.05600000000000004,1.5377637290395276568,-0.5527264392684190713,3.5154420125084312005,-0.018112237937059188299,8.78613509012203595
0.057000000000000044,1.5372060377675737805,-0.56265664209601816913,3.5154235839600833336,-0.01874760319794898852,8.786135090122035947
0.058000000000000045,1.5366384146699995318,-0.57259010094093607137,3.5154045117638485721,-0.019399583026701312055,8.786135090122035948
0.059000000000000045,1.5360608564594468424,-0.5825268785302145702,3.515384779157172945,-0.020068473434209453636,8.786135090122035945
0.060000000000000046,1.5354733597856934256,-0.59246703786579392134,3.5153643690813749267,-0.020754570665320686048,8.786135090122035945
0.06100000000000005,1.5348759212353762605,-0.60241064222773007674,3.5153432641814095928,-0.021458171202613170987,8.786135090122035945
0.06200000000000005,1.5342685373317119025,-0.61235775517733197063,3.515321446805629009,-0.02217957177015219584,8.786135090122035947
0.06300000000000004,1.5336512045342136942,-0.62230844056021734006,3.5152988990055388761,-0.022919069337224751276,8.786135090122035949
0.06400000000000004,1.5330239192384059643,-0.6322627625092855548,3.5152756025355514481,-0.0236769611220514329,8.786135090122035952
0.06500000000000004,1.5323866777755352943,-0.6422207854476059208,3.5152515388527347548,-0.024453544595474617828,8.7861350901220359524
0.06600000000000004,1.53173947641227894,-0.6521825740912199141,3.5152266891165581454,-0.02524911748462183432,8.786135090122035953
0.06700000000000005,1.5310823113504504951,-0.66214819345185579034,3.515201034188634181,-0.026063977776543209288,8.786135090122035956
0.06800000000000005,1.5304151787267028837,-0.6721177088395540099,3.5151745546324569072,-0.026898423721821844746,8.786135090122035957
0.06900000000000005,1.5297380746122287737,-0.6820911858652019056,3.5151472307131365258,-0.02775275383815593995,8.786135090122035959
0.07000000000000005,1.5290509950124585005,-0.692068690442976011,3.515119042397130501,-0.02862726691391144122,8.786135090122035961
0.07100000000000005,1.528353935866755596,-0.7020502887926904604,3.5150899693519711288,-0.029522262011643966238,8.786135090122035965
0.07200000000000005,1.5276468930481100164,-0.7120360474420498576,3.5150599909459895993,-0.030438038471588713725,8.786135090122035966
0.07300000000000005,1.5269298623628291657,-0.722026033228805003,3.5150290862480365855,-0.03137489591511703333,8.786135090122035971
0.07400000000000005,1.526202839550226813,-0.73202031330280985824,3.514997234027199394,-0.032333134248158293733,8.786135090122035975
0.07500000000000005,1.5254658202823100019,-0.742018955127978116,3.5149644127525157102,-0.033313053664585649884,8.786135090122035976
0.07600000000000005,1.524718800163464056,-0.75202202648413773333,3.5149306005926839788,-0.034314954649564272484,8.786135090122035978
0.07700000000000005,1.5239617747301357797,-0.76202959546878177465,3.514895775415770452,-0.035339137982860564836,8.786135090122035983
0.07800000000000006,1.5231947394505149615,-0.7720417304987139018,3.5148599147889129516,-0.03638590474211085355,8.786135090122035985
0.07900000000000006,1.5224176897242142858,-0.78205850031158683514,3.5148229959780213818,-0.03745555630604800047,8.786135090122035988
0.08000000000000006,1.5216306208819477593,-0.79207997396733209985,3.514784995947475038,-0.03854839435768434368,8.78613509012203599
0.08100000000000006,1.5208335281852077634,-0.80210622084947936046,3.5147458913598167536,-0.039664720887449335624,8.786135090122035995
0.08200000000000006,1.520026406825940843,-0.8121373106663636339,3.5147056585754439342,-0.04080483819628020571,8.786135090122036002
0.08300000000000006,1.5192092519262223448,-0.8221733134522186609,3.5146642736522965252,-0.04196904889866393409,8.786135090122036006
0.08400000000000006,1.5183820585379300205,-0.8322142995681547031,3.5146217123455419618,-0.043157655925628781995,8.786135090122036011
0.08500000000000006,1.5175448216424167094,-0.842260339703019021,3.5145779501072571527,-0.04437096252768358209,8.786135090122036017
0.08600000000000006,1.5166975361501822214,-0.85231150487413727754,3.514532962086107553,-0.045609272277702950403,8.786135090122036022
0.08700000000000006,1.5158401969005445379,-0.8623678664279340964,3.514486723127023379,-0.046872889073756538623,8.78613509012203603
0.08800000000000006,1.5149727986613104533,-0.8724294960404309962,3.5144392077708730237,-0.04816211714188040258,8.786135090122036036
0.08900000000000007,1.5140953361284457814,-0.88249646571761990464,3.5143903902541337274,-0.049477261038788519404,8.786135090122036043
0.09000000000000007,1.5132078039257452505,-0.89256884779571044817,3.5143402445085595706,-0.050818625654522441854,8.786135090122036049
0.09100000000000007,1.5123101966045022151,-0.90264671494124919623,3.5142887441608468492,-0.052186516215037034406,8.786135090122036054
0.09200000000000007,1.5114025086431783142,-0.91273014015110902987,3.5142358625322968944,-0.053581238284720190647,8.786135090122036063
0.09300000000000007,1.510484734447073204,-0.92281919675234678764,3.5141815726384764088,-0.055003097768844387038,8.786135090122036072
0.09400000000000007,1.5095568683479945014,-0.93291395840192733183,3.5141258471888753851,-0.056452400915947882264,8.786135090122036082
0.09500000000000007,1.50861890460392807,-0.94301449908631216354,3.5140686585865626803,-0.057929454320143326108,8.786135090122036086
0.09600000000000007,1.507670837398708787,-0.95312089312091070073,3.5140099789278393164,-0.0594345649233514953,8.7861350901220360956
0.09700000000000007,1.5067126608416919265,-0.96323321514939232125,3.5139497800018895896,-0.060968040017457827698,8.786135090122036107
0.09800000000000007,1.5057443689674253028,-0.97335154014285725987,3.5138880332904300595,-0.06253018724638937912,8.786135090122036116
0.09900000000000007,1.5047659557353223136,-0.98347594339886443147,3.513824709967356503,-0.06412131460810978026,8.786135090122036127
0.10000000000000007,1.5037774150293360279,-0.9936065005403142434,3.5137597808983889152,-0.0657417304565297235,8.7861350901220361355
0.10100000000000008,1.5027787406576344641,-1.003743287514184442,3.5136932166407146443,-0.067391743503330461794,8.786135090122036144
0.10200000000000008,1.5017699263522772065,-1.0138863805901170266,3.513624987442629745,-0.069071662819697753825,8.786135090122036152
0.10300000000000008,1.5007509657688935113,-1.0240358563588542507,3.5135550632431786463,-0.07078179783796364113,8.786135090122036164
0.10400000000000008,1.4997218524863620502,-1.0341917917305217133,3.5134834136717922228,-0.072522458353153394426,8.786135090122036175
0.10500000000000008,1.4986825800064924516,-1.0443542639327565331,3.5134100080479243702,-0.074293954524434917456,8.786135090122036187
0.10600000000000008,1.49763314175370879,-1.0545233505086785799,3.5133348153806871776,-0.0760965968764678475,8.7861350901220362
0.10700000000000008,1.496573531074735183,-1.0646991293147027279,3.513257804368484806,-0.07793069630064954244,8.786135090122036211
0.10800000000000008,1.4955037412382836581,-1.0748816785181900771,3.51317894339864617,-0.07979656405625509441,8.786135090122036223
0.10900000000000008,1.4944237654347444482,-1.0850710765949360778,3.5130982005470565363,-0.08169451177146846065,8.786135090122036234
0.11000000000000008,1.4933335967758788821,-1.0952674023264934767,3.513015543577788145,-0.083624851444301751705,8.786135090122036245
0.11100000000000008,1.4922332282945150355,-1.1054707347973279913,3.5129309399427299707,-0.085587895443399667306,8.78613509012203626
0.11200000000000009,1.49112265294424631,-1.1156811533918046029,3.5128443567812167355,-0.08758395650872601956,8.7861350901220362725
0.11300000000000009,1.4900018635991331132,-1.1258987377910023445,3.5127557609196572975,-0.08961334775212923279,8.786135090122036287
0.11400000000000009,1.4888708530534078082,-1.1361235679693554477,3.5126651188711625346,-0.09167638265778365849,8.786135090122036299
0.11500000000000009,1.4877296140211831125,-1.1463557241911186952,3.5125723968351728517,-0.093773375082503493226,8.786135090122036318
0.11600000000000009,1.4865781391361641169,-1.1565952870066548149,3.512477560697085437,-0.09590463925592603627,8.786135090122036331
0.11700000000000009,1.4854164209513641108,-1.1668423372485417351,3.5123805760278814048,-0.09807048978056097273,8.786135090122036345
0.11800000000000009,1.484244451938824388,-1.1770969560274975054,3.5122814080837529533,-0.10027124163170231704,8.786135090122036359
0.11900000000000009,1.4830622244893382217,-1.1873592247281206791,3.512180021805730684,-0.10250721015719960038,8.786135090122036377
0.12000000000000009,1.4818697309121791903,-1.1976292250044439321,3.5120763818193112215,-0.10477871107708483448,8.786135090122036393
0.1210000000000001,1.4806669634348340465,-1.207907038775298685,3.5119704524340852763,-0.10708606048305173298,8.78613509012203641
0.1220000000000001,1.4794539142027403153,-1.2181927482194884784,3.5118621976433663096,-0.10942957483778362066,8.786135090122036428
0.1230000000000001,1.4782305752790288156,-1.22848643577076884,3.5117515811238199412,-0.11180957097412640927,8.786135090122036444
0.1240000000000001,1.4769969386442712997,-1.2387881841126313667,3.5116385662350942684,-0.11422636609410296804,8.786135090122036463
0.12500000000000008,1.4757529961962334079,-1.249098076172889734,3.5115231160194512485,-0.11668027776776516539,8.78613509012203648
0.12600000000000008,1.4744987397496331369,-1.2594161951180653297,3.5114051932013993127,-0.11917162393187980814,8.786135090122036498
0.12700000000000009,1.4732341610359050232,-1.2697426243475701984,3.511284760187327379,-0.12170072288844465295,8.786135090122036518
0.12800000000000009,1.4719592517029702463,-1.2800774474876849687,3.5111617790651404362,-0.1242678933030306147,8.786135090122036537
0.1290000000000001,1.4706740033150128582,-1.2904207483853294247,3.5110362116038968722,-0.12687345420294624549,8.786135090122036556
0.1300000000000001,1.4693784073522623455,-1.300772611101623368,3.5109080192534477306,-0.1295177249752205081,8.786135090122036578
0.1310000000000001,1.468072455210782737,-1.31113311990523541,3.5107771631440780758,-0.1322010253643998174,8.786135090122036599
0.1320000000000001,1.4667561382022684707,-1.3215023592655173163,3.5106436040861506568,-0.13492367547015527336,8.786135090122036617
0.1330000000000001,1.4654294475538472333,-1.3318804138454215191,3.5105073025697520574,-0.13768599574469595987,8.786135090122036639
0.1340000000000001,1.4640923744078899914,-1.3422673684941994005,3.5103682187643415363,-0.1404883069899841344,8.786135090122036661
0.1350000000000001,1.4627449098218284364,-1.3526633082398779363,3.5102263125184027489,-0.14333093035474808438,8.786135090122036682
0.1360000000000001,1.4613870447679800637,-1.3630683182815122867,3.5100815433590985618,-0.14621418733128837793,8.786135090122036704
0.1370000000000001,1.4600187701333811125,-1.3734824839812119015,3.5099338704919291643,-0.14913839975207318803,8.786135090122036726
0.1380000000000001,1.4586400767196275932,-1.3839058908559377064,3.509783252800393693,-0.15210388978611832228,8.786135090122036747
0.1390000000000001,1.4572509552427246347,-1.3943386245690679217,3.5096296488456555853,-0.15511097993514754208,8.786135090122036771
0.1400000000000001,1.4558513963329443804,-1.40478077092173006,3.5094730168662118853,-0.15815999302952870932,8.7861350901220367955
0.1410000000000001,1.4544413905346926719,-1.4152324158438966389,3.5093133147775667255,-0.16125125222398125186,8.7861350901220368215
0.1420000000000001,1.4530209283063847554,-1.4256936453852421389,3.509150500171909219,-0.16438508099305039382,8.786135090122036847
0.1430000000000001,1.4515900000203302515,-1.4361645457057587293,3.508984530317795996,-0.16756180312634355132,8.786135090122036871
0.1440000000000001,1.4501485959626276315,-1.4466452030661282768,3.5088153621598386237,-0.17078174272352425021,8.786135090122036898
0.1450000000000001,1.4486967063330684437,-1.4571357038178481478,3.508642952318396156,-0.17404522418905887855,8.786135090122036925
0.1460000000000001,1.4472343212450515387,-1.4676361343931083085,3.5084672570892730626,-0.17735257222671154374,8.786135090122036952
0.1470000000000001,1.4457614307255075432,-1.4781465812944172219,3.5082882324434227896,-0.18070411183378226177,8.786135090122036981
0.1480000000000001,1.4442780247148338331,-1.4886671310839740397,3.508105834026657214,-0.18410016829508366485,8.786135090122037009
0.1490000000000001,1.4427840930668402648,-1.4991978703727845778,3.5079200171593622531,-0.1875410671766513732,8.7861350901220370375
