t,phi1,v1,phi2,v2,energy
0.0,3.612267194691692218,0.0,1.0354169076089487778,0.0,12.481829868835102395
0.001,3.6122678827089003994,0.0013760325752643654684,1.0354132701287105359,-0.0072749582977812802498,12.481829868835102396
0.002,3.6122699467494786421,0.0027520430584020556549,1.0354023577010682712,-0.014549890450237898964,12.481829868835102397
0.003,3.612273386780290889,0.0041280093629724345844,1.0353841703652417728,-0.021824770307239564618,12.4818298688351023975
0.004,3.6122782027461198535,0.00550390941390765965,1.0353587081866053655,-0.029099571709043654302,12.481829868835102397
0.005,3.6122843945696812386,0.006879721153200865152,1.0353259712566999267,-0.036374268481486369522,12.481829868835102397
0.006,3.6122919621516436412,0.008255422545596490054,1.0352859596932497127,-0.04364883443117067792,12.481829868835102395
0.007,3.6123009053706541505,0.009630991584283464629,1.0352386736401840005,-0.050923243340649969628,12.481829868835102396
0.008,3.6123112240833696403,0.011006406296591970679,1.035184113267663547,-0.058197468963606357256,12.481829868835102394
0.009000000000000001,3.6123229181244937607,0.012381644749694489905,1.0351222787721118739,-0.06547148502002254854,12.481829868835102394
0.010000000000000002,3.6123359873068196324,0.01375668505631185502,1.0350531703762513851,-0.07274526519134622095,12.481829868835102394
0.011000000000000003,3.612350431421278251,0.015131505380425018039,1.0349767883291443214,-0.080018783115645827744,12.481829868835102392
0.012000000000000004,3.612366250236992605,0.01650608394299325019,1.0348931329062385674,-0.08729201238275676535,12.481829868835102394
0.013000000000000005,3.6123834435013375175,0.01788039902767948774,1.0348022044094183151,-0.09456492652941683207,12.481829868835102393
0.014000000000000005,3.6124020109400052138,0.019254428986583537949,1.0347040031670595988,-0.10183749903438990855,12.481829868835102392
0.015000000000000006,3.6124219522570766299,0.020628152245983859201,1.0345985295340907121,-0.10910970331357679103,12.481829868835102391
0.016000000000000007,3.6124432671350984656,0.022001547312088629297,1.0344857838920575226,-0.116381512715112108314,12.481829868835102389
0.017000000000000008,3.6124659552351659935,0.02337459277679681568,1.0343657666491936938,-0.12365290051444625456,12.481829868835102388
0.01800000000000001,3.612490016197011635,0.0247472673234699612,1.0342384782404958368,-0.13092383990941126981,12.481829868835102387
0.01900000000000001,3.6125154496390993136,0.026119549732715398862,1.0341039191278036019,-0.1381943040152696012,12.481829868835102388
0.02000000000000001,3.6125422551587245974,0.02749141888818160874,1.0339620897998847316,-0.14546426585974467843,12.48182986883510239
0.02100000000000001,3.6125704323321206433,0.028862853782366430061,1.0338129907725250924,-0.15273369837803223716,12.481829868835102388
0.022000000000000013,3.6125999807145699552,0.030233833522438841132,1.0336566225886237049,-0.16000257440779132554,12.481829868835102387
0.023000000000000013,3.6126308998405219726,0.031604337336075019545,1.0334929858182927941,-0.16727086668411392912,12.48182986883510239
0.024000000000000014,3.612663189223716503,0.032974344577309394753,1.0333220810589628808,-0.17453854783447215065,12.48182986883510239
0.025000000000000015,3.6126968483573130106,0.03434383473240140478,1.0331439089354929384,-0.18180559037364188188,12.481829868835102389
0.026000000000000016,3.612731876714025782,0.035712787425718668425,1.0329584701002856358,-0.18907196669860190576,12.48182986883510239
0.027000000000000017,3.6127682737462649839,0.03708118242563728386,1.0327657652334076975,-0.19633764908340736799,12.481829868835102389
0.028000000000000018,3.6128060388862836274,0.038448999650459964218,1.0325657950427154004,-0.20360260967403655831,12.481829868835102388
0.02900000000000002,3.6128451715463304633,0.03981621917435272003,1.0323585602639852389,-0.2108668204832099429,12.48182986883510239
0.03000000000000002,3.6128856711188088208,0.04118282123330079806,1.0321440616610497859,-0.21813025338518039053,12.481829868835102393
0.03100000000000002,3.6129275369764414134,0.042548786231084585366,1.0319223000259387765,-0.22539288011049353635,12.481829868835102392
0.03200000000000002,3.6129707684724411295,0.043914094745276186804,1.031693276179025449,-0.23265467224071722862,12.481829868835102391
0.03300000000000002,3.6130153649406878318,0.045278727533257383493,1.0314569909691781704,-0.23991560120313900523,12.481829868835102391
0.03400000000000002,3.6130613256959111862,0.046642665538259679042,1.0312134452739173824,-0.2471756382654305481,12.481829868835102395
0.035000000000000024,3.6131086500338795403,0.04800588989542713957,1.0309626399995778987,-0.25443475453027806566,12.481829868835102395
0.036000000000000025,3.6131573372315948765,0.04936838193790273255,1.0307045760814765898,-0.26169292092997755486,12.481829868835102394
0.037000000000000026,3.6132073865474938644,0.05073012320293886869,1.0304392544840854912,-0.2689501082209938966,12.481829868835102395
0.03800000000000003,3.6132587972216550368,0.052091095438032850053,1.0301666762012103698,-0.27620628697848273954,12.481829868835102393
0.03900000000000003,3.6133115684760121118,0.053451280607087926514,1.0298868422561747885,-0.28346142759077413027,12.481829868835102393
0.04000000000000003,3.6133656995145734907,0.05481066089660066142,1.0295997537020097059,-0.29071550025381684925,12.481829868835102392
0.04100000000000003,3.6134211895236479565,0.05616921872187530632,1.0293054116216486527,-0.29796847496558241498,12.481829868835102392
0.04200000000000003,3.6134780376720766,0.05752693673326588296,1.0290038171281285235,-0.30522032152042772007,12.4818298688351023915
0.04300000000000003,3.6135362431114710017,0.058883797822446669718,1.0286949713647960286,-0.3124710095034152669,12.481829868835102391
0.04400000000000003,3.613595804976457701,0.060239785128711787733,1.0283788755055198453,-0.31972050828458997202,12.481829868835102389
0.04500000000000003,3.6136567223849289767,0.061594882045304580803,1.0280555307549085166,-0.32696878701321151214,12.481829868835102391
0.046000000000000034,3.6137189944382999743,0.06294907222577748103,1.0277249383485341382,-0.33421581461194118686,12.481829868835102396
0.047000000000000035,3.613782620221772209,0.064302339590383050604,1.0273870995531618833,-0.34146155977098227696,12.481829868835102393
0.048000000000000036,3.6138475988046034717,0.065654668332496888175,1.0270420156669854103,-0.34870599094217287982,12.481829868835102391
0.04900000000000004,3.6139139292403841797,0.067006042925073085957,1.0266896880198682017,-0.35594907633303020765,12.48182986883510239
0.05000000000000004,3.613981610567320196,0.06835644812713292198,1.0263301179735908833,-0.36319078390074533737,12.481829868835102391
0.05100000000000004,3.6140506418085221543,0.06970586899028746913,1.0259633069221045734,-0.37043108134612740448,12.4818298688351023915
0.05200000000000004,3.6141210219723013256,0.071054290865294800436,1.0255892562917903157,-0.37766993610749623842,12.481829868835102393
0.05300000000000004,3.6141927500524720575,0.07240169940865246739,1.0252079675417246423,-0.3849073153545224397,12.481829868835102394
0.05400000000000004,3.6142658250286608254,0.07374808058922592539,1.0248194421639513265,-0.39214318598201390446,12.481829868835102393
0.05500000000000004,3.6143402458666219292,0.07509342069491357752,1.0244236816837593744,-0.3993775146036478064,12.481829868835102392
0.05600000000000004,3.6144160115185598754,0.07643770633934910459,1.0240206876599673122,-0.40661026754564705057,12.481829868835102393
0.057000000000000044,3.6144931209234584782,0.07778092446864174656,1.0236104616852138271,-0.41384141084040021897,12.481829868835102394
0.058000000000000045,3.6145715730074167217,0.07912306236815519671,1.0231930053862548143,-0.42107091022002403322,12.481829868835102394
0.059000000000000045,3.6146513666839914206,0.08046410766932576646,1.0227683204242668924,-0.42829873110986736438,12.481829868835102394
0.060000000000000046,3.6147325008545467175,0.08180404835652047512,1.0223364084951574442,-0.43552483862195582652,12.481829868835102395
0.06100000000000005,3.6148149744086104608,0.083142872773935714544,1.0218972713298812424,-0.4427491975483759967,12.481829868835102396
0.06200000000000005,3.6148987862242374994,0.08448056963253713494,1.021450910694763722,-0.44997177235459830927,12.481829868835102394
0.06300000000000004,3.6149839351683799398,0.085817128017041393356,1.0209973283918309618,-0.4571925271727376803,12.481829868835102394
0.06400000000000004,3.6150704200972644056,0.087152537392940401864,1.0205365262591464343,-0.46441142579475092422,12.481829868835102395
0.06500000000000004,3.615158239856776343,0.0884867876135687078,1.0200685061711545931,-0.4716284316655700314,12.481829868835102397
0.06600000000000004,3.615247393282851415,0.08981986892721463317,1.0195932700390313577,-0.4788435078761703838,12.4818298688351023975
0.06700000000000005,3.6153378792018740304,0.09115177198427579509,1.0191108198110415638,-0.48605661715657299296,12.481829868835102398
0.06800000000000005,3.615429696431083047,0.092482487844459623675,1.0186211574729034435,-0.49326772186877985285,12.4818298688351024
0.06900000000000005,3.615522843778984703,0.09381200798402948784,1.0181242850481602055,-0.50047678399964150894,12.481829868835102401
0.07000000000000005,3.615617320045772815,0.09514032430309703354,1.0176202045985587817,-0.5076837651536559526,12.4818298688351024045
0.07100000000000005,3.6157131240237562907,0.09646742913296133249,1.0171089182244358085,-0.51488862654569796047,12.4818298688351024045
0.07200000000000005,3.6158102544977940064,0.09779331524349543287,1.0165904280651109148,-0.52209132899367800693,12.481829868835102406
0.07300000000000005,3.6159087102457370944,0.09911797585058089658,1.0160647362992873869,-0.5292918329111298881,12.481829868835102404
0.07400000000000005,3.6160084900388786886,0.10044140462359090026,1.0155318451454602814,-0.53649009829972620593,12.4818298688351024045
0.07500000000000005,3.616109592642411178,0.10176359569292246988,1.0149917568623320582,-0.5436860847417208723,12.4818298688351024045
0.07600000000000005,3.616212016815891018,0.10308454365757841073,1.0144444737492358097,-0.55087975139231780283,12.4818298688351024045
0.07700000000000005,3.6163157613137111475,0.104404243592799486374,1.013889998146566157,-0.55807105697196498334,12.481829868835102407
0.07800000000000006,3.616420824885581064,0.10572269105774739175,1.0133283324362178901,-0.5652599597585731025,12.4818298688351024105
0.07900000000000006,3.6165272062770146084,0.10703988210323905642,1.0127594790420324276,-0.57244641757965795785,12.4818298688351024105
0.08000000000000006,3.6166349042298255073,0.108355813279532805,1.012183440430252173,-0.57963038780440585406,12.481829868835102414
0.08100000000000006,3.616743917482630731,0.10967048164416689168,1.0116002191099828433,-0.58681182733566122656,12.481829868835102415
0.08200000000000006,3.6168542447713617131,0.110983884769850916164,1.0110098176336638499,-0.59399069260183573867,12.481829868835102415
0.08300000000000006,3.616965884829783491,0.11229602075241061758,1.01041223859754681,-0.60116693954873811153,12.481829868835102417
0.08400000000000006,3.6170788363900218164,0.113606888218786532106,1.0098074846421822675,-0.60834052363132396526,12.481829868835102422
0.08500000000000006,3.6171930981830982925,0.11491648633508698882,1.0091955584529147052,-0.61551139980536496196,12.48182986883510242
0.08600000000000006,3.6173086689394735897,0.116224814814695906374,1.0085764627603859279,-0.6226795225190365591,12.481829868835102421
0.08700000000000006,3.6174255473895987993,0.11753187392643584112,1.0079502003410468988,-0.62984484570442369805,12.481829868835102425
0.08800000000000006,3.6175437322644749779,0.118837664502786724464,1.0073167740176781118,-0.6370073227689437699,12.4818298688351024235
0.08900000000000007,3.6176632222962209345,0.12014218794816071413,1.0066761866599185821,-0.644166906586686218,12.481829868835102423
0.09000000000000007,3.6177840162186493264,0.121445446247233570485,1.0060284411848035398,-0.6513235494896681559,12.481829868835102423
0.09100000000000007,3.6179061127678511106,0.122747441973332954816,1.0053735405573109088,-0.6584772032590053986,12.481829868835102426
0.09200000000000007,3.6180295106827884148,0.12404817829688403187,1.0047114877909166584,-0.665627819115998324,12.481829868835102428
0.09300000000000007,3.6181542087058958814,0.12534765899391274372,1.0040422859481591124,-0.6727753477131320024,12.481829868835102431
0.09400000000000007,3.6182802055836905434,0.12664588845460710653,1.0033659381412122981,-0.6799197391249900542,12.48182986883510243
0.09500000000000007,3.618407500067390292,0.12794287169193686503,1.0026824475324684297,-0.68706094283908171515,12.481829868835102432
0.09600000000000007,3.6185360909135409933,0.12923861435033182328,1.0019918173351296035,-0.6941989077465816145,12.481829868835102432
0.09700000000000007,3.6186659768846523098,0.13053312271441915225,1.0012940508138088,-0.70133358213298179206,12.4818298688351024366
0.09800000000000007,3.6187971567498422943,0.13182640371781995717,1.0005891512851402767,-0.708464913668655506,12.481829868835102437
0.09900000000000007,3.6189296292854908038,0.13311846495200536863,0.99987712211839944223,-0.71559284939933240707,12.481829868835102441
0.10000000000000007,3.6190633932759018049,0.13440931467521240223,0.9991579667361322998,-0.72271733573648468205,12.481829868835102442
0.10100000000000008,3.6191984475139746212,0.13569896182141981171,0.99843168861479454813,-0.72983831844762379453,12.481829868835102441
0.10200000000000008,3.6193347908018841884,0.13698741600938413966,0.9976982912854004318,-0.7369557426465074792,12.481829868835102442
0.10300000000000008,3.6194724219517703753,0.13827468755173614883,0.99695777833418142844,-0.7440695527832566742,12.481829868835102444
0.10400000000000008,3.619611339786436431,0.13956078746413779489,0.99621015340325486494,-0.75117969263438210553,12.481829868835102445
0.10500000000000008,3.6197515431400566215,0.14084572747449987897,0.99545542019130255236,-0.75828610529272026647,12.481829868835102448
0.10600000000000008,3.6198930308588931105,0.14212952003226049459,0.9946935824542595296,-0.765388733157278568,12.4818298688351024504
0.10700000000000008,3.6200358018020221528,0.14341217831772435985,0.99392464400601300805,-0.77248751792298946686,12.48182986883510245
0.10800000000000008,3.620179854842069655,0.14469371625146310019,0.99314860871911160735,-0.7795824005703734105,12.481829868835102453
0.10900000000000008,3.6203251888659561688,0.14597414850377652198,0.99236548052548497433,-0.78667332135511047417,12.481829868835102453
0.11000000000000008,3.6204718027756513747,0.14725349050421488992,0.991575263417173875,-0.7937602197975205985,12.481829868835102454
0.11100000000000008,3.6206196954889381197,0.14853175845116219463,0.9907779614470708533,-0.80084303467195237325,12.481829868835102455
0.11200000000000009,3.6207688659401860661,0.14980896932148036818,0.9899735787296715457,-0.80792170399608034885,12.481829868835102458
0.11300000000000009,3.6209193130811350202,0.15108514088021437613,0.989162119441836745,-0.81499616502011089733,12.481829868835102462
0.11400000000000009,3.6210710358816879904,0.15236029169035808529,0.98834358782356530345,-0.82206635421589668237,12.4818298688351024634
0.11500000000000009,3.6212240333307140453,0.15363444112268077508,0.98751798817877796746,-0.8291322072659598389,12.481829868835102466
0.11600000000000009,3.6213783044368610276,0.15490760936561412883,0.98668532487611223435,-0.8361936590524240046,12.481829868835102465
0.11700000000000009,3.6215338482293781854,0.15617981743519950916,0.9858456023497283229,-0.8432506436458553894,12.481829868835102464
0.11800000000000009,3.6216906637589487794,0.15745108718509528689,0.98499882510012634797,-0.85030309429401311044,12.481829868835102465
0.11900000000000009,3.62184875009853273,0.15872144131664395981,0.9841449976949747902,-0.8573509434105090699,12.481829868835102467
0.12000000000000009,3.6220081063442193592,0.15999090338899876083,0.98328412476995035054,-0.8643941225633776944,12.481829868835102469
0.1210000000000001,3.622168731616090289,0.16125949782930941948,0.9824162110295892809,-0.8714325624635559077,12.48182986883510247
0.1220000000000001,3.6223306250590925554,0.1625272499429667025,0.98154126124815027816,-0.8784661929532737531,12.4818298688351024695
0.1230000000000001,3.6224937858439219963,0.16379418592390532082,0.9806592802704890335,-0.88549494299435613654,12.48182986883510247
0.1240000000000001,3.6226582131679169708,0.16506033286496475107,0.9797702730129445231,-0.8925187406564362106,12.481829868835102471
0.12500000000000008,3.6228239062559624685,0.16632571876830747794,0.9788742444642371297,-0.89953751310508097376,12.481829868835102468
0.12600000000000008,3.6229908643614046648,0.16759037255589412328,0.9779711996863786828,-0.90655118658982971545,12.4818298688351024695
0.12700000000000009,3.6231590867669759813,0.16885432408001488349,0.97706114381559450264,-0.9135596864321459912,12.481829868835102471
0.12800000000000009,3.6233285727857307032,0.17011760413387665349,0.976144082063257536,-0.9205629370132838713,12.481829868835102471
0.1290000000000001,3.623499321761991213,0.17138024446224517033,0.97522001971683466804,-0.9275608617620692668,12.481829868835102471
0.1300000000000001,3.6236713330723048928,0.17264227777214146217,0.97428896214084529466,-0.9345533831425971947,12.481829868835102472
0.1310000000000001,3.6238446061264117503,0.17390373774359184194,0.97335091477783223965,-0.94154042264184590894,12.4818298688351024765
0.1320000000000001,3.6240191403682228215,0.17516465904043063523,0.97240588314934509826,-0.9485219007572088864,12.481829868835102478
0.1330000000000001,3.6241949352768094011,0.17642507732115478208,0.9714538728569360904,-0.95549773698394572234,12.481829868835102481
0.1340000000000001,3.624371990367403154,0.1776850292498294012,0.970494889583168502,-0.9624678498025530591,12.481829868835102483
0.1350000000000001,3.624550305192407157,0.17894455250704335234,0.9695289390926377954,-0.9694321566660567378,12.481829868835102485
0.1360000000000001,3.624729879342417921,0.18020368580091377832,0.9685560272330054668,-0.97639057398722643526,12.481829868835102485
0.1370000000000001,3.624910712447258441,0.18146246887813855359,0.96757615993604572643,-0.98334301712571411946,12.481829868835102484
0.1380000000000001,3.6250928041770223232,0.18272094253509550898,0.9665893432187050786,-0.9902894003751177324,12.481829868835102484
0.1390000000000001,3.6252761542431290334,0.18397914862898724476,0.9655955831841748742,-0.99722963694997158253,12.481829868835102485
0.1400000000000001,3.6254607623993903131,0.18523713008903028453,0.9645948860229769094,-1.0041636389726650093,12.481829868835102486
0.1410000000000001,3.6256466284430878052,0.18649493092768726192,0.96358725801406214023,-1.0110913174602909594,12.481829868835102485
0.1420000000000001,3.6258337522160619336,0.18775259625194076993,0.9625727055259225836,-1.0180125823114261973,12.481829868835102488
0.1430000000000001,3.6260221336058120786,0.18901017227460743888,0.96155123501771647094,-1.0249273422928449537,12.48182986883510249
0.1440000000000001,3.626211772546608082,0.19026770632569074464,0.96052285304040672096,-1.0318355050261679038,12.48182986883510249
0.1450000000000001,3.6264026690206131267,0.19152524686377098127,0.95948756623791279493,-1.03873697697444845,12.481829868835102493
0.1460000000000001,3.626594823059018024,0.1927828434874307654,0.95844538134827599615,-1.0456316634286983766,12.4818298688351024955
0.1470000000000001,3.6267882347431869418,0.19404054694671436923,0.9573963052048382734,-1.0525194684943550327,12.481829868835102499
0.1480000000000001,3.6269829042058146105,0.19529840915461910885,0.95634034473743458505,-1.0594002950776922916,12.481829868835102501
0.1490000000000001,3.6271788316320950334,0.1965564831986169413,0.9552775069735988798,-1.0662740448721776326,12.481829868835102505
