t,phi1,v1,phi2,v2,energy
0.0,2.887551624048817711,0.0,6.0361201113022220355,0.0,9.4781783493619144315
0.001,2.8875503582197656774,-0.0025316619941367279921,6.036120045067539161,-0.00013247313973476380886,9.4781783493619144315
0.002,2.8875465607092691551,-0.00506337066912577929,6.036119846340846649,-0.0002649915672012540648,9.478178349361914432
0.003,2.887540231447306822,-0.007595172705934942896,6.0361195150542131093,-0.00039760056957644544315,9.478178349361914434
0.004,2.887531370317176283,-0.010127114785762877095,6.036119051094420485,-0.0005303454329277055796,9.478178349361914435
0.005,2.8875199771554937805,-0.0126592435901543887535,6.0361184543029654365,-0.0006632714416577328192,9.478178349361914434
0.006,2.8875060517521937912,-0.015191605801115526242,6.0361177244760612845,-0.00079642387794918343887,9.478178349361914438
0.007,2.887489593850528507,-0.017724248101228423784,6.0361168613646405115,-0.0009298480212088848308,9.478178349361914438
0.008,2.8874706031470672022,-0.020257217173765835192,6.0361158646743578097,-0.001063589147511531221,9.478178349361914439
0.009000000000000001,2.8874490792916954853,-0.022790559702805294674,6.0361147340655936966,-0.001197692529042758122,9.4781783493619144385
0.010000000000000002,2.8874250218876144373,-0.025324322373342842662,6.03611346915345868,-0.0013322034335414921394,9.478178349361914439
0.011000000000000003,2.8873984304913396374,-0.02785855187140625445,6.0361120695077979843,-0.00146716712374147246,9.478178349361914442
0.012000000000000004,2.8873693046127000732,-0.030393294884167709391,6.036110534653196838,-0.0016026288568118402885,9.478178349361914443
0.013000000000000005,2.8873376437148369422,-0.03292859810005583851,6.036108864068986314,-0.0017386338837966926254,9.478178349361914447
0.014000000000000005,2.8873034472142023374,-0.03546450820886708825,6.0361070571892497397,-0.0018752274490534966315,9.478178349361914446
0.015000000000000006,2.8872667144805578266,-0.03800107190187633808,6.0361051134028296606,-0.002012454789690260705,9.478178349361914446
0.016000000000000007,2.8872274448369729168,-0.040538335871946709714,6.0361030320533353745,-0.002150361135001358523,9.478178349361914447
0.017000000000000008,2.887185637559823413,-0.043076346813638505597,6.036100812439151029,-0.00228899170590190206,9.478178349361914447
0.01800000000000001,2.8871412918787896656,-0.0456151514233172144,6.0360984538134442798,-0.002428391714360559759,9.478178349361914446
0.01900000000000001,2.8870944069768547128,-0.048154796399260520996,6.036095955384175525,-0.0025686063628307155778,9.478178349361914449
0.02000000000000001,2.887044981990302315,-0.050695328441764258748,6.0360933163141077067,-0.002709680843679865047,9.478178349361914449
0.02100000000000001,2.886993016008714883,-0.05323679425324724145,6.0360905357208166776,-0.0028516603386171440456,9.47817834936191445
0.022000000000000013,2.886938508074971305,-0.055779240538354912607,6.0360876126767021525,-0.0029945900181188859833,9.478178349361914452
0.023000000000000013,2.8868814571852446673,-0.05832271400406174949,6.036084546208999225,-0.0031385150408521031601,9.4781783493619144515
0.024000000000000014,2.8868218622889998753,-0.06086726135977235943,6.0360813352997904676,-0.0032834805530957877535,9.478178349361914452
0.025000000000000015,2.8867597222889911724,-0.06341292931742120572,6.0360779788860186097,-0.003429531688159927935,9.478178349361914451
0.026000000000000016,2.8866950360412595628,-0.06595976459157090066,6.036074475859499798,-0.0035767135658021345665,9.4781783493619144515
0.027000000000000017,2.8866278023551301328,-0.068507813899509002796,6.036070825066937443,-0.0037250712916417735422,9.478178349361914452
0.028000000000000018,2.8865580199932092788,-0.07105712396134325591,6.036067025309936648,-0.0038746499565714992008,9.478178349361914453
0.02900000000000002,2.8864856876713818408,-0.073607741500095206846,6.0360630753450192354,-0.0040254946361660835854,9.478178349361914452
0.03000000000000002,2.8864108040588081412,-0.07615971324179213932,6.0360589738836393572,-0.0041776503900884367195,9.478178349361914451
0.03100000000000002,2.886333367777920936,-0.07871308591555726095,6.0360547195921997075,-0.0043311622614927124725,9.478178349361914454
0.03200000000000002,2.8862533774044222717,-0.08126790625369808048,6.036050311092068332,-0.004486075276424394871,9.478178349361914455
0.03300000000000002,2.8861708314672802594,-0.08382422099179291229,6.036045746959596035,-0.0046424344432172594254,9.478178349361914455
0.03400000000000002,2.8860857284487257616,-0.08638207686877544508,6.0360410257261343948,-0.0048002847518871037153,9.478178349361914457
0.035000000000000024,2.8859980667842489947,-0.08894152062701731162,6.036036145878054388,-0.004959671173522141659,9.478178349361914457
0.036000000000000025,2.8859078448625960509,-0.0915025990124085965,6.0360311058567656223,-0.0051206386596699555743,9.478178349361914458
0.037000000000000026,2.8858150610257653401,-0.09406535877443621848,6.036025904058736183,-0.005283232141720900011,9.478178349361914459
0.03800000000000003,2.8857197135690039551,-0.09662984666626012426,6.036020538835513104,-0.0054474965302878511875,9.47817834936191446
0.03900000000000003,2.8856218007408039616,-0.09919610944478723033,6.036015008493743453,-0.00561347671458219578,9.478178349361914462
0.04000000000000003,2.8855213207428986146,-0.101764193870743049246,6.0360093112951960508,-0.005781217561785952439,9.478178349361914463
0.04100000000000003,2.8854182717302585056,-0.10433414670874093714,6.036003445456783812,-0.005950763916419919602,9.478178349361914463
0.04200000000000003,2.885312651811087641,-0.106906014727348898565,6.035997409150586727,-0.006122160599707742599,9.4781783493619144645
0.04300000000000003,2.8852044590468194543,-0.10947984469915388523,6.0359912005038754766,-0.0062954524089357931955,9.478178349361914464
0.04400000000000003,2.8850936914521127577,-0.11205568340082352477,6.035984817599135693,-0.0064706841168087543864,9.478178349361914465
0.04500000000000003,2.8849803469948476302,-0.11463357761316521574,6.0359782584740928647,-0.006647900470800803027,9.478178349361914467
0.046000000000000034,2.88486442359612125,-0.11721357412118252498,6.0359715211217378934,-0.00682714619250228293,9.478178349361914469
0.047000000000000035,2.884745919130243671,-0.119795719714128823296,6.0359646034903533056,-0.007008465976961760547,9.478178349361914471
0.048000000000000036,2.8846248314247335469,-0.12238006118555809545,6.035957503483540126,-0.0071919044920233554337,9.478178349361914471
0.04900000000000004,2.8845011582603138083,-0.124966645333372860206,6.035950218960245417,-0.007377506377659237352,9.4781783493619144705
0.05000000000000004,2.8843748973709072902,-0.12755551895986913625,6.0359427477347904825,-0.0075653162452971817453,9.478178349361914472
0.05100000000000004,2.8842460464436323162,-0.13014672887177838961,6.035935087576899754,-0.007755378677143074917,9.478178349361914474
0.05200000000000004,2.8841146031187982444,-0.13274032188030639817,6.035927236211730353,-0.007947738225498260446,9.478178349361914476
0.05300000000000004,2.883980564989900976,-0.13533634480116896865,6.035919191319902337,-0.008142439412071617693,9.478178349361914478
0.05400000000000004,2.8838439296036184269,-0.13793484445462444153,6.0359109505375296402,-0.008339526727286263266,9.47817834936191448
0.05500000000000004,2.883704694459805971,-0.14053586766550291917,6.035902511456251708,-0.008539044629580766122,9.47817834936191448
0.05600000000000004,2.883562857011491856,-0.14313946126323215215,6.0358938716232658312,-0.008741037544704766671,9.478178349361914482
0.057000000000000044,2.8834184146648725927,-0.14574567208186001908,6.0358850285413601926,-0.008945549865008890008,9.478178349361914483
0.058000000000000045,2.8832713647793083262,-0.14835454696007353477,6.0358759796689476214,-0.009152625948728843264,9.478178349361914482
0.059000000000000045,2.883121704667318189,-0.15096613274121432153,6.0358667224201000686,-0.009362310119263586667,9.4781783493619144836
0.060000000000000046,2.8829694315945756384,-0.15358047627329047848,6.0358572541645838083,-0.009574646664447467812,9.478178349361914485
0.06100000000000005,2.8828145427799037877,-0.15619762440898478338,6.0358475722278953674,-0.009789679835816208372,9.478178349361914486
0.06200000000000005,2.8826570353952707278,-0.15881762400565916157,6.0358376738912981954,-0.01000745384786663208,9.478178349361914488
0.06300000000000004,2.8824969065657848476,-0.16144052192535535637,6.0358275563918600748,-0.01022801287731002275,9.478178349361914488
0.06400000000000004,2.8823341533696901558,-0.16406636503479173523,6.0358172169224912837,-0.010451401062319000756,9.478178349361914487
0.06500000000000004,2.882168772838361607,-0.16669520020535616599,6.0358066526319835124,-0.010677662501767806122,9.478178349361914489
0.06600000000000004,2.8820007619563004374,-0.16932707431309489688,6.035795860625049545,-0.010906841254465876058,9.478178349361914488
0.06700000000000005,2.8818301176611295141,-0.17196203423869737459,6.0357848379623637116,-0.0111389813383846047274,9.478178349361914488
0.06800000000000005,2.8816568368435887017,-0.17460012686747693402,6.0357735816606031135,-0.011374126729877172404,9.47817834936191449
0.06900000000000005,2.8814809163475302478,-0.17724139908934729337,6.0357620886924896364,-0.0116123213628913312135,9.47817834936191449
0.07000000000000005,2.8813023529699141987,-0.1798858977987947883,6.0357503559868327515,-0.011853609128175034245,9.478178349361914492
0.07100000000000005,2.8811211434608038405,-0.1825336698948462782,6.035738380428573116,-0.012098033872474794469,9.478178349361914493
0.07200000000000005,2.8809372845233611777,-0.1851847622810326584,6.0357261588588269775,-0.012345639397726659739,9.478178349361914493
0.07300000000000005,2.8807507728138424484,-0.18783922186534791088,6.035713688074931393,-0.012596469460239689734,9.478178349361914494
0.07400000000000005,2.880561604941593684,-0.19049709556020362703,6.035700964830490267,-0.01285056776987182056,9.478178349361914494
0.07500000000000005,2.8803697774690463164,-0.19315843028237893487,6.0356879858354212168,-0.013107977989198002221,9.478178349361914497
0.07600000000000005,2.8801752869117128366,-0.1958232729529657639,6.0356747477560032784,-0.013368743732670494037,9.478178349361914496
0.07700000000000005,2.8799781297381825125,-0.19849167049730937982,6.035661247214925447,-0.013632908565771202764,9.478178349361914495
0.07800000000000006,2.8797783023701171668,-0.20116366984494412185,6.0356474807913360783,-0.013900516004155947663,9.478178349361914495
0.07900000000000006,2.8795758011822470215,-0.20383931792952427476,6.035633445020893146,-0.0141716095127905367606,9.4781783493619144974
0.08000000000000006,2.8793706225023666147,-0.20651866168875000792,6.0356191363958153636,-0.014446232505078537993,9.4781783493619145
0.08100000000000006,2.8791627626113307943,-0.20920174806428831333,6.0356045513649341917,-0.014724428341980628628,9.478178349361914499
0.08200000000000006,2.878952217743050793,-0.21188862400168887446,6.0355896863337467196,-0.015006240331125406179,9.478178349361914499
0.08300000000000006,2.8787389840844903894,-0.21457933645029479767,6.035574537664469449,-0.015291711725911543495,9.4781783493619144974
0.08400000000000006,2.8785230577756621612,-0.21727393236314813786,6.0355591016760929734,-0.015580885724601170536,9.478178349361914499
0.08500000000000006,2.8783044349096238363,-0.21997245869689014945,6.0355433746444375758,-0.015873805469404364918,9.4781783493619145
0.08600000000000006,2.8780831115324747443,-0.22267496241165619437,6.0355273528022097386,-0.01617051404555463305,9.478178349361914502
0.08700000000000006,2.8778590836433523797,-0.22538149047096523785,6.035511032339059589,-0.016471054480375263245,9.478178349361914503
0.08800000000000006,2.877632347194429073,-0.228092089841603863,6.035494409401639277,-0.0167754697423364319,9.4781783493619145035
0.08900000000000007,2.8774028980909087854,-0.23080680749350473493,6.0354774800936623062,-0.017083802740102943472,9.478178349361914505
0.09000000000000007,2.8771707321910240248,-0.23352569039961944524,6.035460240475963818,-0.01739609632157248467,9.478178349361914505
0.09100000000000007,2.8769358453060328935,-0.23624878553578566699,6.0354426865665618436,-0.017712393272904272855,9.478178349361914508
0.09200000000000007,2.8766982332002162706,-0.23897613988058855052,6.0354248143407195344,-0.018032736317537978318,9.478178349361914507
0.09300000000000007,2.876457891590875136,-0.24170780041521629046,6.0354066197310083717,-0.018357168115202799767,9.478178349361914509
0.09400000000000007,2.8762148161483280422,-0.24444381412330979345,6.0353880986273723826,-0.018685731260916571904,9.478178349361914509
0.09500000000000007,2.8759690024959087395,-0.2471842279908063768,6.0353692468771933492,-0.019018468283974783778,9.4781783493619145104
0.09600000000000007,2.87572044620996396,-0.24992908900577742714,6.035350060285357048,-0.019355421646929385936,9.4781783493619145104
0.09700000000000007,2.8754691428198513679,-0.25267844415825994891,6.035330534614320502,-0.019696633744557264408,9.478178349361914512
0.09800000000000007,2.8752150878079376787,-0.2554323404400819318,6.03531066558418028,-0.020042146902818258753,9.4781783493619145104
0.09900000000000007,2.8749582766095969607,-0.25819082484468146603,6.0352904488727418366,-0.020392003377802601475,9.478178349361914511
0.10000000000000007,2.8746987046132091168,-0.26095394436691953427,6.0352698801155899144,-0.020746245354667655207,9.478178349361914512
0.10100000000000008,2.8744363671601585574,-0.26372174600288640953,6.035248954906160012,-0.021104914946563824273,9.478178349361914514
0.10200000000000008,2.874171259544833071,-0.26649427674970158666,6.035227668795810932,-0.021468054193549516307,9.4781783493619145165
0.10300000000000008,2.873903377014622898,-0.2692715836053071761,6.035206017293898423,-0.021835705061495029521,9.4781783493619145165
0.10400000000000008,2.8736327147699200141,-0.27205371356825468838,6.0351839958678499157,-0.022207909440975240813,9.4781783493619145165
0.10500000000000008,2.87335926796411763,-0.27484071363748513667,6.0351615999432403794,-0.022584709146150969293,9.478178349361914519
0.10600000000000008,2.8730830317036099148,-0.27763263081210238557,6.0351388249038693022,-0.022966145913638889693,9.478178349361914519
0.10700000000000008,2.8728040010477919493,-0.28042951209113967345,6.0351156660918388003,-0.023352261401369869583,9.478178349361914523
0.10800000000000008,2.8725221710090599158,-0.28323140447331923575,6.035092118807632884,-0.023743097187435603786,9.4781783493619145235
0.10900000000000008,2.8722375365528115335,-0.28603835495680495654,6.0350681783101978754,-0.0241386947689234193,9.4781783493619145235
0.11000000000000008,2.871950092597446742,-0.28885041053894797505,6.035043839817024002,-0.024539095560739123243,9.478178349361914524
0.11100000000000008,2.8716598340143686448,-0.29166761821602517398,6.0350190985042281703,-0.024944340894417766258,9.478178349361914525
0.11200000000000009,2.871366755627984718,-0.29449002498297047634,6.034993949506637938,-0.025354472016922193196,9.478178349361914526
0.11300000000000009,2.871070852215708289,-0.29731767783309887688,6.034968387917876692,-0.02576953008942925256,9.478178349361914528
0.11400000000000009,2.8707721185079602979,-0.30015062375782313448,6.0349424087904500443,-0.026189556186103535795,9.478178349361914527
0.11500000000000009,2.8704705491881713436,-0.30298890974636305133,6.0349160071358334645,-0.026614591292858516965,9.478178349361914527
0.11600000000000009,2.8701661388927840262,-0.30583258278544726456,6.0348891779245611554,-0.027044676306104963087,9.478178349361914527
0.11700000000000009,2.8698588822112555896,-0.30868168985900747595,6.0348619160863161866,-0.02747985203148648494,9.478178349361914529
0.11800000000000009,2.8695487736860608744,-0.31153627794786504506,6.0348342165100219005,-0.027920159182602097612,9.47817834936191453
0.11900000000000009,2.8692358078126955889,-0.3143963940294098707,6.0348060740439345984,-0.028365638379715659831,9.4781783493619145295
0.12000000000000009,2.8689199790396799038,-0.31726208507727148567,6.034777483495737529,-0.028816330148452060434,9.4781783493619145295
0.1210000000000001,2.8686012817685623804,-0.32013339806098228962,6.0347484396326361833,-0.029272274918480020192,9.4781783493619145295
0.1220000000000001,2.8682797103539242397,-0.32301037994563284412,6.0347189371814549163,-0.02973351302218137654,9.478178349361914528
0.1230000000000001,2.8679552591033839791,-0.3258930776915191545,6.0346889708287349023,-0.030200084693306718398,9.4781783493619145295
0.1240000000000001,2.8676279222776023482,-0.32878153825378186222,6.034658535220833448,-0.030672030065617237922,9.478178349361914531
0.12500000000000008,2.8672976940902876863,-0.33167580858203727176,6.0346276249640246644,-0.031149389171512665482,9.478178349361914532
0.12600000000000008,2.8669645687082016352,-0.3345759356200001352,6.03459623462460152,-0.031632201940645153724,9.478178349361914533
0.12700000000000009,2.866628540251165234,-0.33748196630509811838,6.0345643587289792874,-0.032120508198518976164,9.478178349361914536
0.12800000000000009,2.8662896027920654002,-0.34039394756807787125,6.034531991763800399,-0.032614347665075905403,9.478178349361914535
0.1290000000000001,2.8659477503568618136,-0.34331192633260262543,6.03449912817604072,-0.033113759953266135434,9.478178349361914536
0.1300000000000001,2.865602976924594203,-0.34623594951484124176,6.0344657623731172633,-0.03361878456760461214,9.478178349361914537
0.1310000000000001,2.8652552764273900494,-0.34916606402304863012,6.0344318887229973507,-0.03412946090271263579,9.478178349361914538
0.1320000000000001,2.8649046427504727148,-0.3521023167571374635,6.034397501554309243,-0.03464582824184459862,9.478178349361914539
0.1330000000000001,2.864551069732170001,-0.3550447546082411088,6.0343625951564542503,-0.0351679257553997204,9.47817834936191454
0.1340000000000001,2.8641945511639231514,-0.35799342445826769557,6.034327163779720335,-0.035695792499418644188,9.478178349361914542
0.1350000000000001,2.863835080790296303,-0.3609483731794452441,6.034291201635397233,-0.036229467414064754263,9.478178349361914541
0.1360000000000001,2.8634726523089863981,-0.36390964763385777472,6.0342547028958930916,-0.036768989322090077652,9.478178349361914541
0.1370000000000001,2.8631072593708335637,-0.36687729467297231853,6.034217661694852658,-0.037314396927285630193,9.478178349361914538
0.1380000000000001,2.8627388955798319685,-0.36985136113715675075,6.03418007212727702,-0.03786572881291606769,9.47817834936191454
0.1390000000000001,2.8623675544931411671,-0.37283189385518836721,6.0341419282496449217,-0.038423023440138502295,9.47817834936191454
0.1400000000000001,2.861993229621097941,-0.37581893964375312402,6.0341032240800356696,-0.038986319146405343644,9.47817834936191454
0.1410000000000001,2.8616159144272286434,-0.37881254530693546045,6.034063953598253641,-0.039555654143851024085,9.4781783493619145425
0.1420000000000001,2.8612356023282620589,-0.38181275763569862497,6.0340241107459544174,-0.040131066517662466547,9.478178349361914542
0.1430000000000001,2.860852286694142791,-0.38481962340735542387,6.0339836894267725505,-0.040712594224433153533,9.478178349361914541
0.1440000000000001,2.8604659608480451792,-0.38783318938502931168,6.033942683506450987,-0.041300275090500654836,9.478178349361914543
0.1450000000000001,2.860076618066387762,-0.39085350231710574244,6.0339010868129721653,-0.041894146810267471537,9.478178349361914542
0.1460000000000001,2.8596842515788482944,-0.3938806089366737006,6.033858893136690792,-0.042494246944505053217,9.478178349361914542
0.1470000000000001,2.8592888545683793268,-0.39691455596095733007,6.0338160962304683323,-0.043100612918640844687,9.4781783493619145425
0.1480000000000001,2.8588904201712243586,-0.39995539009073757957,6.033772689809809217,-0.043713282021028218456,9.478178349361914544
