t,phi1,v1,phi2,v2,energy
0.0,5.6453778538421355293,0.0,3.8574748902983073684,0.0,-8.360983321782018104
0.001,5.6453811987511611234,0.006689809258321549876,3.857478829884223319,0.007879181434219771125,-8.360983321782018091
0.002,5.6453912334254804147,0.0133795130011848253934,3.8574906486995846912,0.01575847809483768815,-8.3609833217820180825
0.003,5.6454079577068180884,0.020069005707458095377,3.8575103469172282097,0.023638005200593939382,-8.3609833217820180755
0.004,5.6454313713313724965,0.026758181844662921783,3.8575379248252023208,0.031517877954912901953,-8.360983321782018067
0.005,5.6454614739298014767,0.033446935863301323158,3.857573382826748046,0.039398211538245496572,-8.360983321782018058
0.006,5.645498265027202495,0.04013516219118355871,3.857616721440272181,0.047279121100411855106,-8.360983321782018054
0.007,5.6455417440430871183,0.046822755227756740342,3.8576679412993128346,0.055160721752944406013,-8.360983321782018045
0.008,5.645591910291349817,0.05350960933843448048,3.8577270431524973155,0.063043128561431483234,-8.360983321782018034
0.009000000000000001,5.6456487629802310957,0.060195618848927784066,3.857794027863492358,0.07092645653786156497,-8.360983321782018028
0.010000000000000002,5.645712301212274958,0.066880678039577393695,3.8578688964109466952,0.0788108206329682497,-8.360983321782018022
0.011000000000000003,5.6457825239842807,0.073564681139687797765,3.8579516498884259775,0.086696335728576077895,-8.3609833217820180105
0.012000000000000004,5.645859430187249047,0.080247522321863112224,3.8580422895043400362,0.094583116629947308995,-8.360983321782018001
0.013000000000000005,5.645943018606322617,0.08692909569634504763,3.858140816581862495,0.10247127805812976496,-8.360983321782017993
0.014000000000000005,5.6460332879207207305,0.09360929530535317422,3.858247232558842731,0.1103609346423058528,-8.360983321782017984
0.015000000000000006,5.6461302367036685593,0.100288015117427699,3.8583615389877101833,0.1182522009121428807,-8.360983321782017974
0.016000000000000007,5.6462338634223206203,0.10696514902177497006,3.8584837375353710132,0.1261451912901447837,-8.360983321782017967
0.017000000000000008,5.6463441664376786138,0.1136405908226159248,3.8586138299830971185,0.1340400200840053775,-8.360983321782017961
0.01800000000000001,5.646461144004503615,0.12031423423353770032,3.8587518182264075007,0.14193680147896326054,-8.360983321782017956
0.01900000000000001,5.646584794271222617,0.12698597287184862578,3.8588977042749419868,0.14983564953015848747,-8.36098332178201794
0.02000000000000001,5.646715115279829432,0.13365570025293681839,3.8590514902523273108,0.15773667815499113887,-8.360983321782017931
0.02100000000000001,5.64685210496577995,0.14032330978463260622,3.859213178396035554,0.16564000112548191569,-8.360983321782017925
0.022000000000000013,5.646995761157881765,0.14698869476157500364,3.859382771057234946,0.17354573206063488867,-8.360983321782017909
0.023000000000000013,5.64714608157817817,0.15365174835958246651,3.8595602707006330307,0.18145398441880253673,-8.360983321782017904
0.024000000000000014,5.647303063841826521,0.16031236363002815676,3.8597456799043121985,0.1893648714900532111,-8.360983321782017898
0.025000000000000015,5.6474667054569709823,0.16697043349421994849,3.8599390013595575874,0.19727850638854116525,-8.360983321782017891
0.026000000000000016,5.6476370038246096546,0.17362585073778540958,3.8601402378706773538,0.2051950020448792941,-8.360983321782017882
0.027000000000000017,5.647813956238456088,0.18027850800506199578,3.8603493923548153192,0.21311447119851472979,-8.360983321782017872
0.028000000000000018,5.64799755988479519,0.18692829779349269652,3.8605664678417559944,0.22103702639010744486,-8.360983321782017863
0.02900000000000002,5.64818781184233353,0.19357511244802737448,3.8607914674737219816,0.22896277995391201731,-8.360983321782017851
0.03000000000000002,5.6483847090820440517,0.2002188441555300438,3.861024394505163762,0.2368918440101627168,-8.360983321782017844
0.03100000000000002,5.6485882484670051898,0.20685938493919233457,3.8612652523025418692,0.24482433045746207468,-8.360983321782017832
0.03200000000000002,5.6487984267522344107,0.21349662665295339425,3.8615140443441014538,0.2527603509651731052,-8.360983321782017824
0.03300000000000002,5.649015240584516171,0.22013046097592648023,3.8617707742196392409,0.26070001696581535027,-8.360983321782017819
0.03400000000000002,5.6492386865022243066,0.22676077940683250002,3.8620354456302628864,0.26864343964746492367,-8.360983321782017807
0.035000000000000024,5.6494687609351388635,0.2333874732584407596,3.8623080623881427358,0.2765907299461587367,-8.360983321782017799
0.036000000000000025,5.6497054602042573656,0.24001043365201718378,3.8625886284162559885,0.28454199853830309123,-8.360983321782017783
0.037000000000000026,5.649948780521600543,0.24662955151178027563,3.8628771477481232738,0.29249735583308683235,-8.3609833217820177746
0.03800000000000003,5.6501987179900125115,0.2532447175593650857,3.8631736245275376412,0.3004569119648992563,-8.360983321782017763
0.03900000000000003,5.650455268602955428,0.25985582230829546568,3.863478063008285973,0.30842077678575297722,-8.3609833217820177555
0.04000000000000003,5.6507184282442986163,0.26646275605846488473,3.8637904675538628202,0.31638905985771195985,-8.360983321782017748
0.04100000000000003,5.6509881926881021835,0.2730654088906260905,3.8641108426371766702,0.3243618704453249319,-8.36098332178201774
0.04200000000000003,5.6512645575983951256,0.2796636706608899013,3.8644391928402486512,0.332339317508064396,-8.3609833217820177294
0.04300000000000003,5.65154751852894794,0.28625743099523341906,3.8647755228539036776,0.34032150969277146643,-8.360983321782017718
0.04400000000000003,5.6518370709230397503,0.2928465792840179581,3.8651198374774540433,0.34830855532610676274,-8.360983321782017706
0.04500000000000003,5.652133210113219952,0.29943100467651698776,3.86547214161837547,0.3563005624070075985,-8.360983321782017691
0.046000000000000034,5.6524359313210643958,0.30601059607545439225,3.8658324402919756139,0.36429763859915170973,-8.360983321782017683
0.047000000000000035,5.6527452296569261083,0.3125852421315533549,3.866200738621055042,0.3722998912234277746,-8.360983321782017682
0.048000000000000036,5.653061100119680571,0.31915483123809617865,3.8665770418355606807,0.38030742725041298275,-8.360983321782017672
0.04900000000000004,5.653383537596465566,0.32571925152549535963,3.866961355272231746,0.38832035329285791928,-8.360983321782017662
0.05000000000000004,5.6537125368624155954,0.33227839085587623487,3.8673536843742381635,0.39633877559817903616,-8.360983321782017652
0.05100000000000004,5.6540480925803908905,0.33883213681767152968,3.867754034690811482,0.40436280004095899015,-8.360983321782017651
0.05200000000000004,5.6543901993007010193,0.3453803767202281366,3.868162411876868295,0.41239253211545513536,-8.360983321782017643
0.05300000000000004,5.6547388514608231133,0.35192299758842646076,3.8685788216926261717,0.42042807692811646412,-8.3609833217820176314
0.05400000000000004,5.655094043385114714,0.35845988615731267299,3.8690032700032121122,0.42846953919010929938,-8.360983321782017626
0.05500000000000004,5.655455769284521259,0.36499092886674421656,3.8694357627782635302,0.4365170232098520491,-8.3609833217820176176
0.05600000000000004,5.655824023256278224,0.37151601185604891874,3.8698763060915217773,0.44457063288555934046,-8.360983321782017609
0.057000000000000044,5.6561987992836079272,0.37803502095869806335,3.8703249061204182142,0.45263047169779586137,-8.360983321782017588
0.058000000000000045,5.6565800912354110173,0.38454784169699378647,3.870781569145652843,0.4606966427020402434,-8.360983321782017583
0.059000000000000045,5.65696789286595265,0.39105435927677116218,3.8712463015507655067,0.4687692485212593308,-8.360983321782017575
0.060000000000000046,5.657362197814543381,0.3975544585821153512,3.871719109821699669,0.47684839133849318688,-8.360983321782017565
0.06100000000000005,5.657762999605214783,0.40404802417009419056,3.8722000005463587855,0.48493417288945119892,-8.360983321782017555
0.06200000000000005,5.6581702916463897965,0.41053494026550660834,3.8726889804141552745,0.4930266944551196522,-8.360983321782017543
0.06300000000000004,5.658584067230547846,0.41701509075564725302,3.873186056215552104,0.5011260568543811511,-8.360983321782017535
0.06400000000000004,5.6590043195338847228,0.4234883591850877326,3.8736912348415970017,0.5092323604366462769,-8.360983321782017527
0.06500000000000004,5.6594310416159672597,0.4299546287504748652,3.8742045232834493042,0.5173457050744978788,-8.360983321782017521
0.06600000000000004,5.659864226419382813,0.43641378229534634787,3.874725928631899457,0.5254661901563484061,-8.360983321782017501
0.06700000000000005,5.660303866769383571,0.442865702304964257,3.8752554580768811797,0.53359391457911069874,-8.3609833217820174935
0.06800000000000005,5.6607499553735256973,0.44931027090116679902,3.8757931189069763044,0.54172897674088266173,-8.360983321782017485
0.06900000000000005,5.661202484821303345,0.45574736983723873742,3.8763389185089123122,0.54987147453364626206,-8.360983321782017471
0.07000000000000005,5.661661447583777545,0.46217688049280092645,3.8768928643670525715,0.55802150533598129315,-8.360983321782017461
0.07100000000000005,5.6621268360131999956,0.46859868386871939008,3.8774549640628792992,0.5661791660057943659,-8.360983321782017453
0.07200000000000005,5.662598642342631769,0.4750126605820343896,3.8780252252744692577,0.5743445528730635919,-8.360983321782017443
0.07300000000000005,5.6630768586855569605,0.4814186908609099299,3.8786036557759622076,0.5825177617325994387,-8.360983321782017437
0.07400000000000005,5.6635614770354912938,0.48781665453960416126,3.8791902634370221245,0.59069888783682224524,-8.360983321782017429
0.07500000000000005,5.6640524892655857102,0.49420643105346113955,3.879785056222291208,0.59888802588855689663,-8.360983321782017422
0.07600000000000005,5.6645498871282249603,0.5005878994339244143,3.880388042190836688,0.6070852700338451702,-8.3609833217820174155
0.07700000000000005,5.665053662254621218,0.5069609383035729202,3.8809992294955904574,0.61529071385477627343,-8.36098332178201741
0.07800000000000006,5.665563806154402744,0.51332542587117965506,3.881618626382781541,0.62350445036233610735,-8.360983321782017403
0.07900000000000006,5.6660803102151976194,0.51968123992679363294,3.8822462411913614259,0.63172657198927580004,-8.360983321782017398
0.08000000000000006,5.666603165702212571,0.5260282578368456084,3.8828820823524222692,0.6399571705830000657,-8.360983321782017392
0.08100000000000006,5.667132363757806918,0.53236635653927807347,3.8835261583886080035,0.64819633739847595707,-8.360983321782017379
0.08200000000000006,5.667667895401061658,0.5386954125387000378,3.884178477913518363,0.65644416309116259117,-8.360983321782017373
0.08300000000000006,5.668209751527343721,0.54501530190156710626,3.8848390496311058495,0.66470073770996243893,-8.3609833217820173695
0.08400000000000006,5.668757922907865417,0.55132590025138737737,3.8855078823350656598,0.67296615069019478293,-8.3609833217820173565
0.08500000000000006,5.6693124001892391036,0.55762708276395369213,3.8861849849082185993,0.68124049084659195813,-8.360983321782017346
0.08600000000000006,5.6698731738930270973,0.5639187241626027683,3.886870366321887003,0.68952384636631900436,-8.360983321782017341
0.08700000000000006,5.670440234415286857,0.5702006987135017642,3.8875640356352636874,0.6978163048020173703,-8.360983321782017332
0.08800000000000006,5.671013572026111471,0.57647288022096282136,3.8882660019947739602,0.7061179530648733225,-8.360983321782017329
0.08900000000000007,5.6715931768691654705,0.58273514202278614235,3.8889762746334307082,0.7144288774177117248,-8.360983321782017319
0.09000000000000007,5.6721790389612160026,0.58898735698563216853,3.8896948628701825948,0.72274916346811586716,-8.360983321782017313
0.09100000000000007,5.672771148191659386,0.59522939750042342614,3.8904217761092553896,0.731078896161574035,-8.360983321782017307
0.09200000000000007,5.673369494322043089,0.6014611354777766205,3.891157023839486457,0.73941815977465352353,-8.360983321782017292
0.09300000000000007,5.673974066985583154,0.6076824423434655606,3.8919006156336524356,0.74776703790820281604,-8.360983321782017288
0.09400000000000007,5.674584855686677093,0.6138931890339155064,3.8926525611477901304,0.75612561348058265534,-8.360983321782017274
0.09500000000000007,5.6752018498004123074,0.6200932459917295361,3.8934128701205106542,0.76449396872092675523,-8.360983321782017263
0.09600000000000007,5.675825038572070037,0.6262824831612475391,3.894181552372306844,0.77287218516243290774,-8.360983321782017253
0.09700000000000007,5.6764544111166248927,0.63246076998413844626,3.894958617804853982,0.78126034363568526035,-8.360983321782017244
0.09800000000000007,5.6770899564182399945,0.63862797539502631566,3.895744076400303858,0.78965852426200854676,-8.360983321782017241
0.09900000000000007,5.677731663329757754,0.6447839678171509007,3.8965379382205721998,0.79806680644685507194,-8.360983321782017237
0.10000000000000007,5.6783795205721863354,0.6509286151580633316,3.8973402134066195085,0.8064852688732252647,-8.360983321782017227
0.10100000000000008,5.679033516734181831,0.6570617848053575507,3.898150912177725331,0.8149139894951226247,-8.3609833217820172194
0.10200000000000008,5.679693640271526182,0.66318334362243814764,3.8989700448307560055,0.82335304553104390706,-8.360983321782017208
0.10300000000000008,5.6803598795066008917,0.66929315794432524695,3.899797621739425914,0.8318025134575053993,-8.360983321782017199
0.10400000000000008,5.6810322226278565563,0.67539109357349710785,3.9006336533535522822,0.8402624690026061623,-8.360983321782017196
0.10500000000000008,5.681710657689278261,0.6814770157757711032,3.9014781501983035574,0.8487329871396291194,-8.360983321782017191
0.10600000000000008,5.682395172609846877,0.6875507892762237504,3.9023311228734414106,0.85721414208068089444,-8.360983321782017183
0.10700000000000008,5.6830857551729962963,0.693612278255150474,3.9031925820525563958,0.865706007270371312,-8.360983321782017175
0.10800000000000008,5.6837823930260666476,0.6996613463440657869,3.90406253848229731,0.8742086553795334901,-8.360983321782017163
0.10900000000000008,5.684485073679753533,0.70569785662174458273,3.9049410029815942943,0.88272215829898546834,-8.360983321782017156
0.11000000000000008,5.685193784507553324,0.7117216716103052395,3.9058279864408757165,0.89124658713333433245,-8.360983321782017145
0.11100000000000008,5.6859085127452045688,0.7177326532713352398,3.9067234998212788811,0.8997820121948238066,-8.3609833217820171344
0.11200000000000009,5.6866292454901255374,0.723730663002060021,3.9076275541538546072,0.90832850299722630563,-8.360983321782017124
0.11300000000000009,5.6873559697008479654,0.7297155616315557734,3.9085401605387657233,0.9168861282497804507,-8.360983321782017117
0.11400000000000009,5.688088672196447028,0.73568720941700691164,3.9094613301444795204,0.92545495585117506674,-8.3609833217820171075
0.11500000000000009,5.6888273396559675974,0.7416454660400089513,3.9103910742069542148,0.93403505288358070006,-8.360983321782017097
0.11600000000000009,5.6895719586178468232,0.7475901906029175272,3.911329404028819466,0.94262648560672970355,-8.3609833217820170945
0.11700000000000009,5.6903225154793330865,0.75352124162524429757,3.9122763309785509977,0.95122931945204595853,-8.360983321782017087
0.11800000000000009,5.691078996495901375,0.7594384770401004839,3.9132318664896393772,0.95984361901682531285,-8.360983321782017081
0.11900000000000009,5.6918413877806651236,0.76534175419068880056,3.9141960220597529978,0.9684694480584678344,-8.360983321782017075
0.12000000000000009,5.6926096753037845714,0.7712309298268445374,3.9151688092498953219,0.97710686948876299265,-8.360983321782017064
0.1210000000000001,5.6933838448918716885,0.7771058601016265603,3.9161502396835564347,0.9857559453682288965,-8.360983321782017062
0.1220000000000001,5.6941638822273917125,0.78296640056795900365,3.917140325045858966,0.99441673690050673493,-8.360983321782017061
0.1230000000000001,5.694949772848061358,0.78881240617532443247,3.9181390770826984335,1.0030893044268115798,-8.360983321782017055
0.1240000000000001,5.695741502146243743,0.79464373126650925756,3.9191465075998780673,1.0117737074204407279,-8.360983321782017046
0.12500000000000008,5.6965390553683400896,0.8004602295744021922,3.9201626284622381688,1.0204700044813407753,-8.360983321782017041
0.12600000000000008,5.697342417614178243,0.80626175421884654497,3.9211874515927800694,1.0291782533307346315,-8.360983321782017035
0.12700000000000009,5.6981515738363980803,0.81204815770354714795,3.9222209889717847458,1.0378985108058097008,-8.360983321782017031
0.12800000000000009,5.6989665088398338442,0.81781929191303272275,3.923263252635926155,1.0466308328544684679,-8.360983321782017025
0.1290000000000001,5.6997872072808934757,0.82357500810967449524,3.92431425467737935,1.055375274530142748,-8.360983321782017024
0.1300000000000001,5.700613653666934985,0.8293151569307618709,3.9253740072429234439,1.0641318899866728729,-8.360983321782017019
0.1310000000000001,5.7014458323556399355,0.8350395883856359892,3.9264425225330394859,1.0729007324732531036,-8.360983321782017012
0.1320000000000001,5.7022837275543840855,0.84074815185288197966,3.9275198128010033155,1.0816818543294445723,-8.360983321782017009
0.1330000000000001,5.703127323319605252,0.8464406960775807459,3.928605890351973464,1.0904753069802570798,-8.360983321782017006
0.1340000000000001,5.703976603556168458,0.8521170691686211083,3.929700767542074175,1.0992811409313010823,-8.360983321782017
0.1350000000000001,5.704831552016728424,0.85777711859607313984,3.930804456777473609,1.1080994057640112236,-8.360983321782017001
0.1360000000000001,5.7056921523010894577,0.8634206911886235334,3.9319169705134573102,1.1169301501309427841,-8.360983321782017
0.1370000000000001,5.706558387855562818,0.86904763313107384273,3.9330383212534970067,1.1257734217511424311,-8.360983321782016993
0.1380000000000001,5.707430241972321605,0.87465778996190244205,3.9341685215483148184,1.1346292674055946747,-8.360983321782016995
0.1390000000000001,5.7083076977887532424,0.88025100657089105265,3.9353075839949429504,1.1434977329327454493,-8.3609833217820169905
0.1400000000000001,5.709190738286809624,0.8858271271968166881,3.9364555212357789484,1.1523788632241042541,-8.360983321782016992
0.1410000000000001,5.71007934629235498,0.8913859954252098729,3.9376123459576365966,1.1612727022199263056,-8.360983321782016988
0.1420000000000001,5.710973504474511541,0.8969274541861799907,3.9387780708907925398,1.1701792929049761702,-8.360983321782016985
0.1430000000000001,5.7118731953450030537,0.9024513457523086223,3.9399527088080287067,1.1790986773043743597,-8.360983321782016982
0.1440000000000001,5.7127784012574962316,0.90795751173661173406,3.9411362725236706262,1.1880308964795283907,-8.360983321782016972
0.1450000000000001,5.7136891044069401994,0.91344579309057158183,3.9423287748926217151,1.1969759905241498248,-8.3609833217820169705
0.1460000000000001,5.7146052868289040016,0.91891603010223919427,3.9435302288093936264,1.2059339985603588192,-8.360983321782016968
0.1470000000000001,5.7155269303989122555,0.9243680623944083035,3.9447406472071327485,1.2149049587348777396,-8.360983321782016968
0.1480000000000001,5.716454016831779008,0.9298017289228615908,3.945960043056642941,1.2238889082153153971,-8.360983321782016957
0.1490000000000001,5.717386527680939883,0.9352168679746901175,3.9471884293654046017,1.2328858831865434902,-8.360983321782016954
0.1500000000000001,5.718324444337782575,0.9406133171666868098,3.9484258191765901568,1.2418959188471668481,-8.360983321782016954
0.1510000000000001,5.7192677480309757807,0.9459909134438148704,3.9496722255680760689,1.2509190494060890871,-8.360983321782016952
0.1520000000000001,5.720216419825796637,0.9513494930777519856,3.9509276616514514596,1.2599553080791753065,-8.3609833217820169575
