t,phi1,v1,phi2,v2,energy
0.0,5.8957110243718338083,0.0,5.3680539810830385505,0.0,-24.14652235502653774
0.001,5.895711301673305438,0.00055459965955891674965,5.368057629407947955,0.007296648888020112107,-24.146522355026537739
0.002,5.8957121335580183726,0.0011091599156176611446,5.3680685743770911998,0.0145932866057155814065,-24.146522355026537736
0.003,5.8957135199668691903,0.0016636413695498313354,5.36808681597371106,0.021889901978126168836,-24.14652235502653774
0.004,5.895715460801360309,0.0022180046324770910365,5.3681123541698711004,0.02918648382101980396,-24.146522355026537739
0.005,5.8957179559236121747,0.0027722103301445137942,5.3681451889264440855,0.03648302093625507208,-24.146522355026537734
0.006,5.8957210051563803226,0.0033262191077975008622,5.3681853201930957503,0.043779502107141784694,-24.146522355026537729
0.007,5.8957246082830773153,0.0038799916350607971693,5.368232747908263934,0.051075916093798994356,-24.146522355026537732
0.008,5.8957287650477995643,0.004433488610820129687,5.3682874719991330605,0.05837225162850981506,-24.146522355026537736
0.009000000000000001,5.8957334751553590315,0.0049866707681069923396,5.368349492381603983,0.065668497411072409115,-24.146522355026537732
0.010000000000000002,5.8957387382713198217,0.005539498878987101486,5.3684188089602591725,0.07296464210414650155,-24.14652235502653773
0.011000000000000003,5.8957445540220396597,0.0060919337594530457274,5.3684954216283232494,0.080260674328594782945,-24.146522355026537732
0.012000000000000004,5.8957509219947162663,0.0066439362743216536977,5.3685793302676188547,0.087556582658818561724,-24.146522355026537736
0.013000000000000005,5.8957578417374386344,0.0071954673421366030638,5.3686705347485178543,0.09485235561808702656,-24.146522355026537734
0.014000000000000005,5.8957653127592432093,0.0077464879400767937858,5.368769034929887868,0.102147981673859479996,-24.146522355026537734
0.015000000000000006,5.895773334530174979,0.008296959108871008375,5.3688748306590341193,0.10944344923309990378,-24.14652235502653773
0.016000000000000007,5.8957819064813534876,0.00884684195771938146,5.3689879217716365914,0.1167387466375832168,-24.146522355026537732
0.017000000000000008,5.8957910280050437658,0.0093960976692222006,5.3691083080916824893,0.12403386215919258623,-24.146522355026537725
0.01800000000000001,5.8958006984547322044,0.009944687504316559982,5.3692359894313939923,0.1313287839952071525,-24.146522355026537729
0.01900000000000001,5.8958109171452073565,0.0104925728072213879174,5.3693709655911512893,0.13862350026357952872,-24.146522355026537729
0.02000000000000001,5.895821683352645701,0.011039715010391368908,5.3695132363594108875,0.14591799899820243497,-24.14652235502653773
0.02100000000000001,5.8958329963147023556,0.011586075639480280199,5.3696628015126191785,0.15321226814416382821,-24.146522355026537722
0.022000000000000013,5.8958448552306067644,0.012131616318314262354,5.3698196608151212614,0.1605062955529898879,-24.146522355026537725
0.023000000000000013,5.895857259261263359,0.012676298773875542724,5.36998381401906499,0.16780006897787521832,-24.146522355026537723
0.024000000000000014,5.8958702075293572126,0.013220084841297130032,5.370155260864300256,0.17509357606889962752,-24.146522355026537727
0.025000000000000015,5.8958836991194646915,0.0137629364688689975895,5.370334001078273476,0.18238680436823084375,-24.146522355026537727
0.026000000000000016,5.895897733078169121,0.014304815723056271931,5.370520034375917273,0.18967974130531252968,-24.14652235502653772
0.027000000000000017,5.895912308414181475,0.014845684793529942876,5.3707133604595353412,0.19697237419203695509,-24.146522355026537723
0.028000000000000018,5.895927424098466102,0.015385505998210610159,5.3709139790186824735,0.20426469021790168843,-24.146522355026537718
0.02900000000000002,5.8959430790643715036,0.015924241788325780929,5.3711218897300397395,0.21155667644514966823,-24.146522355026537716
0.03000000000000002,5.8959592722077661738,0.01646185475348123146,5.371337092257284793,0.21884831980389201484,-24.14652235502653772
0.03100000000000002,5.89597600238717952,0.016998307626746945393,5.3715595862509572926,0.22613960708721294368,-24.146522355026537716
0.03200000000000002,5.895993268423947876,0.0175335632897581399,5.371789371348319424,0.23343052494625614096,-24.14652235502653772
0.03300000000000002,5.8960110691023656267,0.018067584777831889865,5.372026447173211489,0.24072105988529196329,-24.146522355026537723
0.03400000000000002,5.8960294031698414507,0.018600335285099859207,5.3722708133359025613,0.24801119825676482266,-24.146522355026537718
0.035000000000000024,5.8960482693370597114,0.019131778169657647133,5.372522469432936176,0.25530092625632011842,-24.146522355026537716
0.036000000000000025,5.8960676662781470025,0.019661876958731255849,5.372781415046971032,0.26259022991781007881,-24.14652235502653772
0.037000000000000026,5.8960875926308438655,0.020190595353861184876,5.3730476497466166967,0.26987909510827787397,-24.146522355026537713
0.03800000000000003,5.89610804699668171,0.020717897236104655808,5.373321173086264277,0.27716750752291936373,-24.146522355026537711
0.03900000000000003,5.8961290279411649336,0.021243746671256469548,5.3736019846059120443,0.28445545268002184357,-24.146522355026537715
0.04000000000000003,5.896150533993958281,0.021768107915088996955,5.3738900838309859843,0.29174291591587915215,-24.146522355026537716
0.04100000000000003,5.8961725636490794475,0.022290945418611801695,5.374185470272155253,0.2990298823796825053,-24.146522355026537708
0.04200000000000003,5.8961951153650969566,0.022812223833351392723,5.3744881434251425083,0.30631633702838642115,-24.146522355026537704
0.04300000000000003,5.8962181875653333248,0.023331908016651601713,5.3747981027705290956,0.31360226462154910276,-24.146522355026537706
0.04400000000000003,5.896241778638073536,0.023849963036995079141,5.3751153477735550594,0.320887649716146644,-24.146522355026537703
0.04500000000000003,5.896265886936778853,0.024366354179346400492,5.3754398778839139602,0.32817247666136042673,-24.1465223550265377
0.046000000000000034,5.896290510780305978,0.024881046950517272061,5.375771692535542459,0.33545672959333707727,-24.1465223550265377
0.047000000000000035,5.896315648453131592,0.02539400708455432366,5.3761107911464046526,0.34274039242992035143,-24.14652235502653769
0.048000000000000036,5.896341298205582295,0.025905200548149973224,5.376457173118271125,0.35002344886535431895,-24.146522355026537689
0.04900000000000004,5.896367458254069964,0.02641459354607684586,5.376810837836492686,0.35730588236495721828,-24.146522355026537689
0.05000000000000004,5.896394126781332563,0.026922152526646227535,5.37717178466976877,0.36458767615976535548,-24.146522355026537685
0.05100000000000004,5.896421301936680421,0.027427844187191030815,5.3775400129699104635,0.3718688132411464205,-24.146522355026537687
0.05200000000000004,5.8964489818362480025,0.02793163547957374742,5.3779155220715981305,0.3791492763553815976,-24.146522355026537687
0.05300000000000004,5.8964771645632512056,0.028433493615719859565,5.378298311292133603,0.3864290479982158469,-24.146522355026537682
0.05400000000000004,5.8965058481682502004,0.028933386073177178943,5.3786883799311869087,0.3937081104093757361,-24.146522355026537687
0.05500000000000004,5.8965350306694178416,0.029431280600701579236,5.379085727270537494,0.40098644556705420367,-24.146522355026537687
0.05600000000000004,5.896564710052813681,0.029927145223869584749,5.379490352573809922,0.40826403518236163636,-24.146522355026537689
0.057000000000000044,5.896594884272663607,0.030420948250718274365,5.3799022550862039996,0.41554086069374264624,-24.146522355026537687
0.058000000000000045,5.8966255512516451355,0.030912658277412956554,5.380321434034219306,0.42281690326135793463,-24.146522355026537689
0.059000000000000045,5.896656708881178384,0.0314022441939430675,5.380747888625374085,0.4300921437614306327,-24.146522355026537687
0.060000000000000046,5.896688355021722755,0.03188967518984674053,5.3811816180479184655,0.43736656278055651144,-24.146522355026537683
0.06100000000000005,5.89672048750307936,0.032374920759964491186,5.3816226214705419743,0.44464014060997745568,-24.146522355026537683
0.06200000000000005,5.8967531041246992107,0.032857950710222458,5.382070898042075303,0.45191285723981760062,-24.146522355026537685
0.06300000000000004,5.8967862026559972085,0.033338735163445634835,5.3825264468911862914,0.45918469235328153178,-24.146522355026537685
0.06400000000000004,5.8968197808366719626,0.033817244565201526155,5.382989267126070094,0.46645562532081395296,-24.146522355026537682
0.06500000000000004,5.896853836377031468,0.034293449689674651937,5.3834593578341334817,0.47372563519422022972,-24.146522355026537678
0.06600000000000004,5.896888366958324671,0.034767321645572324037,5.383936718081673246,0.4809947007007472204,-24.146522355026537675
0.06700000000000005,5.8969233702330789613,0.035238831882062110948,5.3844213469135486644,0.48826280023712380975,-24.146522355026537675
0.06800000000000005,5.89695884382544361,0.03570795219474140252,5.3849132433528479856,0.4955299118635605643,-24.146522355026537675
0.06900000000000005,5.8969947853315392012,0.03617465473163948085,5.385412406400548895,0.5027960132977079342,-24.146522355026537675
0.07000000000000005,5.8970311923198130777,0.036638911999252497915,5.3859188350351729154,0.5100610819085724286,-24.146522355026537677
0.07100000000000005,5.897068062331400838,0.037100696868611754687,5.3864325282124337012,0.5173250947103901984,-24.146522355026537678
0.07200000000000005,5.897105392880493921,0.037559982581385670418,5.3869534848648791907,0.52458802835645746446,-24.146522355026537678
0.07300000000000005,5.8971431814547133074,0.038016742756015824418,5.3874817039015275616,0.53184985913291723354,-24.14652235502653768
0.07400000000000005,5.897181425515489377,0.038470951393887446195,5.3880171842074969513,0.53911056295250175214,-24.146522355026537678
0.07500000000000005,5.8972201224984479493,0.038922582885534723016,5.388559924643628901,0.54637011534823015234,-24.14652235502653768
0.07600000000000005,5.897259269813802551,0.03937161201688128707,5.3891099240461054717,0.55362849146706074986,-24.146522355026537675
0.07700000000000005,5.8972988648467529423,0.039818013975516236812,5.389667181226059989,0.56088566606349746197,-24.146522355026537673
0.07800000000000006,5.8973389049578899324,0.040261764357006039957,5.3902316949691813745,0.5681416134931498193,-24.146522355026537673
0.07900000000000006,5.8973793874836065295,0.040702839171242657485,5.390803464035312012,0.5753963077062460508,-24.146522355026537671
0.08000000000000006,5.8974203097365154556,0.041141214848828220057,5.391382487158039101,0.5826497222410987328,-24.14652235502653767
0.08100000000000006,5.897461669005873064,0.04157686824749657988,5.391968763044279456,0.58990183021752249374,-24.146522355026537671
0.08200000000000006,5.897503462558009696,0.042009776658572052337,5.392562290373857695,0.59715260433020328295,-24.14652235502653767
0.08300000000000006,5.897545687636766519,0.04243991781346565287,5.3931630677990777785,0.6044020168420187113,-24.146522355026537664
0.08400000000000006,5.8975883414639388752,0.04286726989020912519,5.3937710939442878376,0.6116500395773089873,-24.146522355026537661
0.08500000000000006,5.897631421239726187,0.043291811520027047342,5.3943863674054382523,0.6188966439150979771,-24.146522355026537661
0.08600000000000006,5.897674924143188448,0.04371352179394729236,5.395008886749632925,0.626141800782263928,-24.146522355026537661
0.08700000000000006,5.897718847332709353,0.04413238026945010984,5.395638650514673699,0.63338548064665940463,-24.146522355026537657
0.08800000000000006,5.8977631879464660855,0.044548366977156084253,5.3962756572085978724,0.64062765351017999735,-24.146522355026537657
0.08900000000000007,5.8978079431029058225,0.044961462427553214925,5.3969199053092087514,0.6478682889017813724,-24.146522355026537657
0.09000000000000007,5.897853109901228981,0.045371647617763351093,5.3975713932635991997,0.6551073558704442461,-24.146522355026537657
0.09100000000000007,5.89789868542187925,0.045778904038348204153,5.398230119487668123,0.6623448229780868745,-24.146522355026537656
0.09200000000000007,5.8979446667270404507,0.04618321368015514673,5.3988960823656298414,0.6695806582924246648,-24.146522355026537654
0.09300000000000007,5.8979910508611402627,0.04658455904120299614,5.399569280249516294,0.67681482937977652454,-24.146522355026537654
0.09400000000000007,5.898037834851360854,0.046982923133607966636,5.400249711458672022,0.68404730329781758004,-24.146522355026537649
0.09500000000000007,5.8980850157081564575,0.047378289490549961876,5.400937374279241882,0.6912780465882779075,-24.146522355026537645
0.09600000000000007,5.8981325904257779383,0.047770642173279365192,5.4016322669636514233,0.69850702526958693435,-24.14652235502653765
0.09700000000000007,5.8981805559828043785,0.04815996577816447114,5.40233438773007989,0.70573420482946318315,-24.146522355026537649
0.09800000000000007,5.898228909342681741,0.04854624544377968746,5.4030437347619257814,0.712959550217449047,-24.146522355026537645
0.09900000000000007,5.8982776474542686347,0.048929466858034621308,5.4037603062072649194,0.72018302583739029696,-24.14652235502653764
0.10000000000000007,5.8983267672523892323,0.049309616265344148375,5.4044841001783009687,0.7274045955398600433,-24.146522355026537637
0.10100000000000008,5.898376265658393375,0.04968668047383954752,5.4052151147508083542,0.73462422261452688474,-24.146522355026537633
0.10200000000000008,5.898426139580723916,0.05006064686262076721,5.4059533479635675157,0.7418418697824670006,-24.146522355026537633
0.10300000000000008,5.8984763859154913275,0.05043150338904987295,5.4066987978177924483,0.7490574991884199561,-24.146522355026537633
0.10400000000000008,5.8985270015470556305,0.05079923859608570781,5.4074514622765504704,0.75627107239298801126,-24.14652235502653763
0.10500000000000008,5.8985779833486156752,0.051163841619659779882,5.408211339264174163,0.76348255036477874377,-24.146522355026537633
0.10600000000000008,5.898629328182805817,0.051525302196093372447,5.408978426665665421,0.7706918934724908126,-24.14652235502653763
0.10700000000000008,5.898681032902300035,0.051883610669555853266,5.4097527223260915663,0.77789906147694271477,-24.146522355026537623
0.10800000000000008,5.898733094350423524,0.05223875799956414013,5.410534224049973455,0.78510401352304440503,-24.146522355026537626
0.10900000000000008,5.89878550936177181,0.052590735768523259662,5.411322929600665533,0.79230670813171167135,-24.146522355026537626
0.11000000000000008,5.898838274762837424,0.052939536189307915646,5.4121188366997277732,0.7995071031917231827,-24.146522355026537624
0.11100000000000008,5.898891387372644183,0.05328515211288496192,5.412921943026289446,0.80670515595152014814,-24.146522355026537626
0.11200000000000009,5.8989448440033891066,0.053627577035976653047,5.4137322462164046543,0.8139008230109485505,-24.146522355026537623
0.11300000000000009,5.898998641461092023,0.05396680510876452354,5.4145497438623995893,0.8210940603129439432,-24.146522355026537623
0.11400000000000009,5.8990527765462528976,0.054302831142633723287,5.4153744335122114334,0.82828482313515882436,-24.146522355026537626
0.11500000000000009,5.8991072460545169232,0.05463565061795761306,5.4162063126687188717,0.8354730660815326293,-24.146522355026537621
0.11600000000000009,5.89916204677734742,0.054965259691922399847,5.417045378789064138,0.8426587430738044084,-24.146522355026537621
0.11700000000000009,5.8992171755027065752,0.055291655206391566433,5.417891629283966547,0.8498418073429682892,-24.146522355026537621
0.11800000000000009,5.89927262901574407,0.055614834695809824172,5.4187450615170274534,0.8570222114206718451,-24.14652235502653762
0.11900000000000009,5.8993284040994936296,0.0559347963951462915,5.4196056728040265804,0.86419990713055752825,-24.14652235502653762
0.12000000000000009,5.8993844975355775335,0.056251539247876573504,5.4204734604122096625,0.87137484557954735285,-24.146522355026537614
0.1210000000000001,5.8994409061049191316,0.05656506291400339033,5.4213484215595673437,0.87854697714907104553,-24.14652235502653761
0.1220000000000001,5.899497626588463396,0.056875367778115373495,5.422230553414105275,0.88571625148623791564,-24.14652235502653761
0.1230000000000001,5.899554655767905551,0.057182454957483620072,5.423119853093105358,0.89288261749495272796,-24.146522355026537609
0.1240000000000001,5.8996119904264278234,0.057486326310195564604,5.4240163176623780728,0.90004602332697589807,-24.146522355026537612
0.12500000000000008,5.8996696273494443363,0.05778698444332569802,5.4249199441355058426,0.90720641637292836476,-24.14652235502653761
0.12600000000000008,5.8997275633253542003,0.05808443272114263114,5.4258307294730773736,0.91436374325324153096,-24.14652235502653761
0.12700000000000009,5.8997857951463028234,0.058378675273351968177,5.4267486705819129172,0.92151794980905270087,-24.146522355026537607
0.12800000000000009,5.8998443196089514875,0.058669717003374422516,5.4276737643142804013,0.92866898109304648267,-24.146522355026537609
0.1290000000000001,5.8999031335152552127,0.058957563596658573038,5.4286060074671023757,0.93581678136024266256,-24.146522355026537609
0.1300000000000001,5.899962233673248959,0.05924222152902762469,5.4295453967811537193,0.9429612940587310986,-24.14652235502653761
0.1310000000000001,5.9000216168978421877,0.059523698075059501306,5.430491928940250055,0.950102461820354224,-24.146522355026537607
0.1320000000000001,5.900081280011621819,0.059802001316499562292,5.431445600570426824,0.95724022645133779286,-24.146522355026537602
0.1330000000000001,5.90014121984566362,0.060077140150705197534,5.4324064082391089613,0.96437452892287054546,-24.146522355026537597
0.1340000000000001,5.90020143324035205,0.060349124299121516736,5.4333743484542711285,0.9715053093616335145,-24.14652235502653759
0.1350000000000001,5.9002619170462086012,0.06061796431578731036,5.4343494176635884496,0.97863250704027974125,-24.146522355026537588
0.1360000000000001,5.900322668124728657,0.060883671595870419293,5.4353316122535777015,0.98575606036786521814,-24.146522355026537586
0.1370000000000001,5.9003836833492269,0.061146258384231609776,5.436320928548728915,0.9928759068802319211,-24.146522355026537588
0.1380000000000001,5.9004449596056912975,0.061405737784016008068,5.4373173628106273294,0.9999919832303438488,-24.146522355026537583
0.1390000000000001,5.9005064937936456955,0.061662123765271106984,5.438320911237065667,1.0071042251785770317,-24.146522355026537581
0.1400000000000001,5.900568282827021038,0.06191543117359031235,5.4393315699611466682,1.0142125675829645329,-24.14652235502653758
0.1410000000000001,5.9006303236350352466,0.06216567573878095331,5.440349335050375854,1.0213169443893975099,-24.146522355026537578
0.1420000000000001,5.9006926131630817772,0.062412874083555634604,5.4413742025057444665,1.0284172886217834656,-24.146522355026537574
0.1430000000000001,5.900755148373626882,0.06265704373224576243,5.4424061682608025478,1.0355135323721628728,-24.14652235502653757
0.1440000000000001,5.900817926247115591,0.062898203119536028105,5.4434452281807221134,1.0426056067907854099,-24.146522355026537572
0.1450000000000001,5.9008809437828864436,0.06313637159921858511,5.444491378061350383,1.0496934420761471132,-24.146522355026537574
0.1460000000000001,5.9009441980000949778,0.06337156945296560585,5.4455446136282530303,1.0567769674649897991,-24.14652235502653757
0.1470000000000001,5.901007685938646007,0.06360381789911885367,5.4466049305357474137,1.0638561112222641828,-24.146522355026537569
0.1480000000000001,5.9010714046601346885,0.0638331391014948542,5.4476723243659257515,1.0709308006310581765,-24.14652235502653757
0.1490000000000001,5.901135351248796408,0.06405955617820419788,5.4487467906276682086,1.0780009619824919152,-24.146522355026537566
0.1500000000000001,5.9011995228124654884,0.06428309321048345145,5.449828324755645865,1.0850665205655811242,-24.146522355026537559
