t,phi1,v1,phi2,v2,energy
0.0,2.449968793437561132,0.0,4.144268502813932109,0.0,20.389804700862377581
0.001,2.4499658977776501312,-0.005791315072458862642,4.1442722805861665985,0.0075555364378500094538,20.38980470086237757
0.002,2.4499572108264140472,-0.011582573151637737639,4.1442836138546836166,0.015110976503330527084,20.389804700862377559
0.003,2.449942732669340304,-0.017373717250913180603,4.144302502474926983,0.022666223830401174528,20.389804700862377552
0.004,2.449922463448896847,-0.023164690396974247412,4.1443289462059802776,0.03022118206567848764,20.389804700862377547
0.005,2.449896403364515503,-0.028955435636477278964,4.144362944710582661,0.037775754874761092007,20.38980470086237754
0.006,2.449864552672568688,-0.03474589604269892803,4.1444044975551510178,0.045329845948550941104,20.38980470086237753
0.007,2.4498269116863394589,-0.04053601472218684323,4.1444536042098084182,0.052883359009569305562,20.38980470086237752
0.008,2.4497834807759849196,-0.046325734821407425917,4.1445102640484188915,0.06043619781826620273,20.389804700862377512
0.009000000000000001,2.4497342603684929801,-0.052114999533390076867,4.144574476348628509,0.06798826617932195683,20.389804700862377507
0.010000000000000002,2.449679250947632472,-0.057903752104367350788,4.144646240291912759,0.07553946794793958096,20.389804700862377498
0.011000000000000003,2.449618453053896628,-0.063691935840410438234,4.1447255549636302114,0.08308970703612667384,20.389804700862377488
0.012000000000000004,2.4495518672844399273,-0.069479494114059396036,4.14481241935308246,0.090638887418965525386,20.389804700862377482
0.013000000000000005,2.4494794942930083143,-0.075266370370947549304,4.1449068323535803258,0.09818691314087012744,20.389804700862377467
0.014000000000000005,2.449401334789862796,-0.081052508136419489994,4.1450087927625163106,0.105733688321828787256,20.38980470086237746
0.015000000000000006,2.4493173895416964238,-0.08683785102214209943,4.1451182992814432876,0.11327911716363104425,20.389804700862377455
0.016000000000000007,2.449227659371544669,-0.09262234273270802453,4.1452353505161594082,0.12082310395607759214,20.389804700862377444
0.017000000000000008,2.4491321451586891998,-0.098405927072231040124,4.1453599449767992106,0.12836555308317191152,20.389804700862377436
0.01800000000000001,2.4490308478385550651,-0.10418854795093273275,4.1454920810779309105,0.13590636902929232064,20.38980470086237743
0.01900000000000001,2.4489237684026012969,-0.109970149391719944246,4.145631757138659854,0.14344545638534315464,20.389804700862377422
0.02000000000000001,2.4488109078982049404,-0.11575067553675241675,4.145778971382738108,0.15098271985488378702,20.389804700862377411
0.02100000000000001,2.4486922674285385231,-0.121530070654000084336,4.1459337219386801715,0.15851806426023421039,20.389804700862377404
0.022000000000000013,2.4485678481524409688,-0.12730827914378945987,4.1460960068398847794,0.16605139454855589617,20.3898047008623774
0.023000000000000013,2.4484376512842819728,-0.13308524554533856995,4.146265824024762772,0.17358261579790665806,20.389804700862377392
0.024000000000000014,2.4483016780938198483,-0.13886091454327989449,4.146443171336871009,0.18111163322326824626,20.389804700862377384
0.025000000000000015,2.4481599299060528559,-0.144635230974170772,4.146628046525052294,0.18863835218254540459,20.389804700862377371
0.026000000000000016,2.4480124081010640285,-0.15040813983299073595,4.146820447243581285,0.19616267818253512625,20.389804700862377361
0.027000000000000017,2.4478591141138595062,-0.15617958627962525258,4.147020371052316359,0.20368451688486484867,20.389804700862377356
0.028000000000000018,2.4477000494342003943,-0.16194951564533533473,4.1472278154168573986,0.21120377411189833186,20.389804700862377344
0.02900000000000002,2.4475352156064281597,-0.16771787343921251206,4.147442777708709466,0.21872035585260797026,20.389804700862377337
0.03000000000000002,2.4473646142292835776,-0.1734846053546186428,4.147665255205452333,0.22623416826841229189,20.389804700862377325
0.03100000000000002,2.4471882469557192496,-0.17924965727561005785,4.147895245090915833,0.23374511769897740467,20.389804700862377321
0.03200000000000002,2.4470061154927057027,-0.18501297528334553344,4.1481327444553609926,0.24125311066798115419,20.38980470086237731
0.03300000000000002,2.4468182216010310904,-0.19077450566247759476,4.148377750295666909,0.24875805388883876322,20.3898047008623773
0.03400000000000002,2.44662456709509451,-0.19653419490752665859,4.1486302595155233343,0.2562598542703887281,20.38980470086237729
0.035000000000000024,2.4464251538426929553,-0.20229198972923752947,4.148890268925628924,0.26375841892253775372,20.389804700862377285
0.036000000000000025,2.446219983764801921,-0.20804783706091777021,4.149157775243895111,0.27125365516186351403,20.389804700862377278
0.037000000000000026,2.4460090588353496787,-0.21380168406475747414,4.1494327750956555598,0.27874547051717403102,20.38980470086237727
0.03800000000000003,2.4457923810809852436,-0.21955347813812997345,4.1497152650138811585,0.2862337727350224717,20.389804700862377262
0.03900000000000003,2.4455699525808400469,-0.22530316691987302438,4.1500052414394005,0.29371846978517616937,20.389804700862377253
0.04000000000000003,2.4453417754662833403,-0.23105069829655001812,4.1503027007211258145,0.30119946986603867982,20.389804700862377238
0.04100000000000003,2.4451078519206713487,-0.2367960204086907725,4.150607639116284293,0.30867668141002369312,20.38980470086237723
0.04200000000000003,2.4448681841790901909,-0.242539081657011468,4.1509200527906547676,0.31615001308887962541,20.389804700862377226
0.04300000000000003,2.4446227745280925928,-0.2482798307086132987,4.151239937818809686,0.32361937381896372374,20.389804700862377217
0.04400000000000003,2.4443716253054284123,-0.254018216503159417,4.1515672901843623343,0.33108467276646452352,20.389804700862377212
0.04500000000000003,2.4441147388997689967,-0.25975418825902975872,4.1519021057802192607,0.33854581935257150539,20.389804700862377201
0.046000000000000034,2.4438521177504254002,-0.26548769547945334356,4.1522443804088378354,0.34600272325859080598,20.389804700862377194
0.047000000000000035,2.4435837643470604762,-0.2712186879586176545,4.152594109782488906,0.35345529443100584413,20.38980470086237719
0.048000000000000036,2.4433096812293948745,-0.27694711578775470782,4.1529512895235244775,0.36090344308648173176,20.389804700862377182
0.04900000000000004,2.4430298709869069636,-0.28267292936120343445,4.153315915164650377,0.368347079716812347,20.389804700862377167
0.05000000000000004,2.4427443362585267031,-0.28839607938244800253,4.1536879821492038267,0.37578611509380895406,20.389804700862377163
0.05100000000000004,2.4424530797323234885,-0.29411651687013171938,4.1540674858314358855,0.3832204602741292632,20.389804700862377151
0.05200000000000004,2.4421561041451879963,-0.2998341931640461613,4.154454421476798682,0.39065002660404583168,20.389804700862377135
0.05300000000000004,2.441853412282508051,-0.30554905993109518836,4.1548487842622373865,0.39807472572415271512,20.389804700862377132
0.05400000000000004,2.4415450069778385418,-0.31126106917123351082,4.1552505692764868644,0.4054944695740092873,20.389804700862377129
0.05500000000000004,2.4412308911125654126,-0.31697017322337948434,4.155659771520372933,0.41290917039672015386,20.389804700862377129
0.05600000000000004,2.4409110676155637532,-0.3226763247713018202,4.156076385907118172,0.42031874074345009545,20.389804700862377116
0.057000000000000044,2.4405855394628500176,-0.32837947684947990732,4.15650040726265221,0.4277230934778729831,20.389804700862377111
0.058000000000000045,2.4402543096772283922,-0.33407958284893745282,4.1569318303259264347,0.4351221417805536185,20.389804700862377106
0.059000000000000045,2.4399173813279313474,-0.3397765965230491584,4.1573706497492330433,0.44251579915326145955,20.389804700862377103
0.060000000000000046,2.439574757530254394,-0.34547047199332016045,4.1578168600985283775,0.44990397942321520223,20.389804700862377089
0.06100000000000005,2.439226441445185075,-0.35116116375513797178,4.158270455853760463,0.45728659674725719662,20.389804700862377078
0.06200000000000005,2.438872436279026218,-0.35684862668349667483,4.158731431409200692,0.46466356561595668632,20.389804700862377073
0.06300000000000004,2.4385127452830134792,-0.36253281603869312604,4.159199781073779575,0.47203480085764086788,20.389804700862377063
0.06400000000000004,2.4381473717529272029,-0.36821368747199494315,4.1596754990714264774,0.47940021764235277732,20.389804700862377057
0.06500000000000004,2.43777631902869863,-0.37389119703128005767,4.1601585795414132885,0.4867597314857350199,20.389804700862377056
0.06600000000000004,2.437399590494010479,-0.37956530116664762668,4.1606490165387019307,0.49411325825283836818,20.389804700862377047
0.06700000000000005,2.4370171895758919317,-0.3852359567360001092,4.1611468040342956386,0.50146071416185426366,20.389804700862377038
0.06800000000000005,2.4366291197443080512,-0.39090312101059632462,4.161651935915593935,0.50880201578777026656,20.389804700862377038
0.06900000000000005,2.4362353845117436595,-0.39656675168057532206,4.162164405986751223,0.5161370800659475077,20.389804700862377033
0.07000000000000005,2.43583598743278171,-0.40222680686045090144,4.1626842079690389137,0.5234658242956192067,20.389804700862377028
0.07100000000000005,2.4354309321036761765,-0.40788324509457663937,4.1632113355012110158,0.5307881661433093294,20.389804700862377023
0.07200000000000005,2.4350202221619194928,-0.4135360253625812849,4.1637457821398731017,0.5381040236461704683,20.389804700862377018
0.07300000000000005,2.434603861285804573,-0.41918510708477440285,4.1642875413598545702,0.5454133152152400394,20.389804700862377009
0.07400000000000005,2.4341818531939814407,-0.4248304501275221544,4.1648366065545841266,0.5527159596386138978,20.389804700862377004
0.07500000000000005,2.4337542016450084952,-0.43047201480859311737,4.165392971036468391,0.5600118760845364854,20.389804700862376997
0.07600000000000005,2.4333209104368984507,-0.43610976190247406137,4.1659566280372735594,0.5673009841044066329,20.389804700862376995
0.07700000000000005,2.4328819834066589714,-0.44174365264565560626,4.166527570708510024,0.57458320363569814954,20.389804700862376986
0.07800000000000006,2.4324374244298280383,-0.44737364874188770373,4.1671057921218198723,0.5818584550047943429,20.389804700862376981
0.07900000000000006,2.431987237420004074,-0.4529997123674048967,4.16769128526936718,0.58912665892973562116,20.38980470086237697
0.08000000000000006,2.4315314263283708592,-0.45862180617612132314,4.168284043064231001,0.59638773652287934075,20.389804700862376967
0.08100000000000006,2.4310699951432172665,-0.46423989330479544435,4.1688840583408009834,0.6036416092934710716,20.389804700862376959
0.08200000000000006,2.4306029478894518477,-0.4698539373781644916,4.169491323855175501,0.61088819915012646346,20.38980470086237695
0.08300000000000006,2.4301302886281123,-0.47546390251404863767,4.1701058322855622273,0.61812742840322290426,20.389804700862376945
0.08400000000000006,2.4296520214558698435,-0.48106975332842491356,4.170727576232681059,0.625359219767200175,20.389804700862376941
0.08500000000000006,2.4291681505045285398,-0.48667145494047090498,4.1713565482201692878,0.6325834963627693119,20.389804700862376933
0.08600000000000006,2.4286786799405195828,-0.49226897297757827576,4.171992740694988935,0.6398001817190288995,20.389804700862376927
0.08700000000000006,2.4281836139643905895,-0.49786227358033617994,4.172636146027836164,0.64700919977548802684,20.389804700862376924
0.08800000000000006,2.4276829568102899245,-0.50345132340748463795,4.173286756513552659,0.6542104748839951483,20.389804700862376912
0.08900000000000007,2.427176712745446084,-0.50903608964083796605,4.17394456437153889,0.6614039318105721021,20.38980470086237691
0.09000000000000007,2.4266648860696421726,-0.5146165399901783624,4.1746095617461691646,0.66858949573715254866,20.389804700862376905
0.09100000000000007,2.4261474811146855007,-0.52019264269811976714,4.175281740707208369,0.6757670922632240998,20.389804700862376901
0.09200000000000007,2.4256245022438723332,-0.5257643665449421288,4.1759610932502302994,0.68293664740737342105,20.3898047008623769
0.09300000000000007,2.4250959538514478189,-0.5313316808533962214,4.176647611297037498,0.69009808760873359826,20.389804700862376891
0.09400000000000007,2.4245618403620611302,-0.5368945554934791745,4.1773412866960824776,0.6972513397283330692,20.389804700862376893
0.09500000000000007,2.4240221662302158393,-0.54245296088718088825,4.178042111222890254,0.7043963310503454315,20.389804700862376884
0.09600000000000007,2.4234769359397155656,-0.5480068680132015256,4.17875007658048207,0.71153298928323944626,20.389804700862376877
0.09700000000000007,2.422926154003104919,-0.5535562484116402816,4.179465174399800228,0.7186612425608285677,20.389804700862376875
0.09800000000000007,2.4223698249611057664,-0.5591010741886556512,4.1801873962401339155,0.725781019443219337,20.389804700862376863
0.09900000000000007,2.4218079533820488568,-0.56464131802109742585,4.1809167335895459287,0.7328922489176579902,20.389804700862376858
0.10000000000000007,2.4212405438613008235,-0.5701769531611106673,4.181653177865300196,0.7399948603992746362,20.389804700862376854
0.10100000000000008,2.420667601020686599,-0.5757079534407119207,4.182396720414289988,0.7470887837317243732,20.38980470086237685
0.10200000000000008,2.4200891295079072678,-0.5812342932763379429,4.1831473525134667225,0.7541739491877247184,20.389804700862376848
0.10300000000000008,2.4195051339959533817,-0.5867559476733672384,4.1839050653702692492,0.7612502874694887367,20.389804700862376846
0.10400000000000008,2.4189156191825137699,-0.59227289223061470937,4.1846698501230535218,0.768317729709053262,20.389804700862376837
0.10500000000000008,2.4183205897893798654,-0.59778510314479973937,4.1854416978415225382,0.7753762074685016139,20.389804700862376832
0.10600000000000008,2.4177200505618455775,-0.60329255721498804946,4.1862205995271564558,0.78242565274008022097,20.38980470086237683
0.10700000000000008,2.4171140062681027358,-0.60879523184700767526,4.1870065461136427697,0.78946599794620857135,20.389804700862376828
0.10800000000000008,2.4165024616986321303,-0.6142931050578394324,4.1877995284673064447,0.79649717593938191857,20.389804700862376827
0.10900000000000008,2.4158854216655901734,-0.6197861554799822499,4.1885995373875398976,0.8035191200019661793,20.389804700862376825
0.11000000000000008,2.4152628910021912108,-0.62527436236579376946,4.18940656360723272,0.8105317638458844692,20.389804700862376823
0.11100000000000008,2.4146348745620855015,-0.6307577055918066186,4.1902205977932010343,0.81753504161219472956,20.389804700862376823
0.11200000000000009,2.4140013772187328938,-0.63623616566302078573,4.1910416305466163716,0.8245288878705579055,20.389804700862376818
0.11300000000000009,2.4133624038647722245,-0.6417097237171725372,4.1918696524034339615,0.8315132376185961467,20.389804700862376821
0.11400000000000009,2.4127179594113864543,-0.6471783615289803309,4.192704653834820329,0.8384880262811405059,20.389804700862376815
0.11500000000000009,2.4120680487876635747,-0.65264206151436819956,4.193546625247580077,0.8454531897093676206,20.389804700862376816
0.11600000000000009,2.411412676939953298,-0.6581008067346670872,4.1943955569845817596,0.85240866417982487016,20.389804700862376811
0.11700000000000009,2.4107518488312195608,-0.6635545809007946404,4.1952514393251827125,0.8593543863933435073,20.389804700862376811
0.11800000000000009,2.410085569440388854,-0.6690033683774139707,4.1961142624856527517,0.8662902934738392717,20.389804700862376811
0.11900000000000009,2.4094138437616944082,-0.6744471541870719166,4.196984016619596608,0.87321632296699999714,20.38980470086237681
0.12000000000000009,2.4087366768040162483,-0.67988592401431735356,4.197860691818374997,0.88013241283885973633,20.389804700862376811
0.1210000000000001,2.4080540735902171404,-0.68531966420980011006,4.198744278111524205,0.88703850147425892695,20.389804700862376808
0.1220000000000001,2.40736603915647445,-0.69074836179435106616,4.199634765467174077,0.8939345276751901354,20.389804700862376808
0.1230000000000001,2.4066725785516079274,-0.6961720044630440246,4.2005321437924642933,0.90082043065902891787,20.389804700862376808
0.1240000000000001,2.4059736968364034417,-0.7015905805892399589,4.201436402933958823,0.90769615005664934515,20.3898047008623768
0.12500000000000008,2.40526939908293268,-0.70700407922861425926,4.2023475326780584276,0.91456162591042374437,20.389804700862376806
0.12600000000000008,2.4045596903738688235,-0.71241249012316760917,4.2032655227514111158,0.9214167986721062158,20.3898047008623768
0.12700000000000009,2.4038445758017982252,-0.71781580370522114336,4.204190362821320413,0.92826160920059949005,20.389804700862376792
0.12800000000000009,2.4031240604685280983,-0.7232140111013965503,4.205122042496151348,0.93509599875960469466,20.389804700862376794
0.1290000000000001,2.4023981494843902305,-0.7286071041365817971,4.206060551325734028,0.9419199090151536065,20.389804700862376789
0.1300000000000001,2.4016668479675407416,-0.73399507533788317047,4.2070058788017646837,0.94873328203302297057,20.389804700862376787
0.1310000000000001,2.4009301610432558938,-0.73937791793856434116,4.2079580143582040724,0.9555360602760304707,20.389804700862376792
0.1320000000000001,2.4001880938432239702,-0.7447556258819731727,4.208916947371673121,0.96232818660121194354,20.38980470086237679
0.1330000000000001,2.3994406515048332322,-0.7501281938254570112,4.209882667161845678,0.9691096042568794311,20.389804700862376789
0.1340000000000001,2.3986878391704559666,-0.75549561714426720664,4.2108551629918382726,0.9758802568795596723,20.389804700862376783
0.1350000000000001,2.3979296619867286346,-0.76085789193545362965,4.211834424068596747,0.9826400884908126374,20.389804700862376776
0.1360000000000001,2.3971661251038281285,-0.7662150150217499626,4.2128204395432796493,0.9893890434939297153,20.389804700862376776
0.1370000000000001,2.3963972336747441487,-0.77156698395545055794,4.2138131985116382638,0.9961270666705111654,20.389804700862376771
0.1380000000000001,2.3956229928545477094,-0.7769137970222796688,4.214812690014393158,1.0028541031769224517,20.389804700862376771
0.1390000000000001,2.3948434077996557756,-0.78225545324525387473,4.215818903037607125,1.0095700985406290792,20.389804700862376773
0.1400000000000001,2.3940584836670920422,-0.7875919523885385334,4.216831826513054402,1.0162749986564095565,20.389804700862376775
0.1410000000000001,2.39326822561374386,-0.79292329496129910864,4.217851449318586036,1.0229687497824461124,20.389804700862376773
0.1420000000000001,2.3924726387956153106,-0.79824948222154823397,4.2188777602784912836,1.0296512985362927963,20.389804700862376771
0.1430000000000001,2.391671728367076438,-0.80357051617998938683,4.219910748163854916,1.0363225918907205983,20.389804700862376766
0.1440000000000001,2.3908654994801086374,-0.80888639960385806156,4.2209504016929103045,1.0429825771694392221,20.38980470086237677
0.1450000000000001,2.3900539572835462015,-0.8141971360207613405,4.2219967095313881726,1.0496312020426951526,20.389804700862376771
0.1460000000000001,2.3892371069223140312,-0.8195027297225167789,4.223049660292860877,1.0562684145227456594,20.389804700862376776
0.1470000000000001,2.3884149535366615046,-0.8248031857689915289,4.224109242539082105,1.0628941629592083795,20.389804700862376776
0.1480000000000001,2.3875875022613925083,-0.8300985099919426419,4.2251754447803218577,1.0695083960342861276,20.389804700862376773
0.1490000000000001,2.3867547582250916256,-0.83538870899885950185,4.2262482554756965925,1.0761110627578665789,20.389804700862376778
0.1500000000000001,2.3859167265493464824,-0.840673790176809354,4.227327663033494412,1.0827021124624964798,20.389804700862376775
0.1510000000000001,2.3850734123479662447,-0.84595376169628690415,4.2284136558114951503,1.0892814947982300354,20.389804700862376775
