t,phi1,v1,phi2,v2,energy
0.0,1.2484043433985330118,0.0,4.5456913052713661116,0.0,-4.588585478067109955
0.001,1.2483999235868355157,-0.008839615912646538808,4.5456917759301941726,0.0009413283124026179029,-4.5885854780671099496
0.002,1.2483866641966376949,-0.017679142034978803428,4.5456931879706171293,0.0018827845041556638157,-4.5885854780671099453
0.003,1.2483645653626294127,-0.026518488564970610013,4.545695541584462096,0.0028244964761788447793,-4.5885854780671099374
0.004,1.2483336273093132938,-0.03535756567717519403,4.5456988370914768777,0.003766592172525526647,-4.5885854780671099366
0.005,1.2482938503510339959,-0.044196283511023017514,4.5457030749393838795,0.0047091996019373139985,-4.588585478067109931
0.006,1.2482452348920191797,-0.053034552159129295603,4.5457082557039555693,0.0056524468593839274787,-4.5885854780671099353
0.007,1.248187781426432166,-0.06187228165561448582,4.545714380089111465,0.0065964621475834725828,-4.5885854780671099335
0.008,1.2481214905384362628,-0.0707093819644409867,4.545721448927036636,0.007541373798498189283,-4.588585478067109933
0.009000000000000001,1.2480463629022707469,-0.079545762967769296126,4.54572946317832168,0.008487310294800766501,-4.5885854780671099275
0.010000000000000002,1.2479623992823384789,-0.0883813344543368848,4.545738423932124156,0.009434400291306298619,-4.588585478067109921
0.011000000000000003,1.2478696005333051261,-0.097216006107863045215,4.545748332406351425,0.010382772636364953575,-4.5885854780671099236
0.012000000000000004,1.247767967600209966,-0.10604968749548298321,4.54575918994786486,0.011332556393210413176,-4.5885854780671099227
0.013000000000000005,1.2476575015185882398,-0.114882288056214425945,4.5457709980327053885,0.012283880861259136358,-4.5885854780671099184
0.014000000000000005,1.2475382034146050219,-0.12371371708946002784,4.5457837582663403004,0.013236875597355485219,-4.588585478067109916
0.015000000000000006,1.2474100745052005679,-0.13254388374354886467,4.5457974723839312736,0.014191670436957741533,-4.5885854780671099166
0.016000000000000007,1.2472731160982470995,-0.14137269700432031505,4.545812142250623554,0.015148395515260028399,-4.5885854780671099158
0.017000000000000008,1.2471273295927169836,-0.1502000656837536387,4.545827769861856226,0.016107181288245137652,-4.5885854780671099158
0.01800000000000001,1.2469727164788622574,-0.15902589840864657137,4.5458443573436934947,0.017068158553663248513,-4.588585478067109917
0.01900000000000001,1.2468092783384054487,-0.16785010360934626776,4.5458619069531769107,0.018031458471931506889,-4.5885854780671099153
0.02000000000000001,1.2466370168447416381,-0.17667258950853593603,4.5458804210786984516,0.01899721258694941766,-4.5885854780671099114
0.02100000000000001,1.2464559337631517052,-0.18549326411008051972,4.545899902240394377,0.019965552846824984301,-4.5885854780671099123
0.022000000000000013,1.246266030951026698,-0.19431203518793479704,4.5459203530905597577,0.020936611624506511269,-4.5885854780671099158
0.023000000000000013,1.2460673103581032619,-0.20312881027511728107,4.545941776414083592,0.021910521738314964634,-4.5885854780671099106
0.024000000000000014,1.2458597740267100603,-0.21194349665275331945,4.545964175128904404,0.022887416472371765833,-4.588585478067109909
0.025000000000000015,1.245643424092025116,-0.22075600133919080706,4.5459875522864862077,0.023867429596916871768,-4.5885854780671099067
0.026000000000000016,1.2454182627823439996,-0.22956623107919194193,4.546011911072314741,0.024850695388511971964,-4.5885854780671099075
0.027000000000000017,1.2451842924193587855,-0.23837409233320447031,4.546037254806413835,0.025837348650123610411,-4.5885854780671099036
0.028000000000000018,1.2449415154184476976,-0.24717949126671588477,4.546063586943881814,0.026827524731081015545,-4.5885854780671099
0.02900000000000002,1.244689934288975355,-0.2559823337396940563,4.546090911075447778,0.027821359546903397184,-4.588585478067109902
0.03000000000000002,1.2444295516346035358,-0.2647825252961178,4.546119230928047651,0.028818989598991443631,-4.5885854780671098976
0.03100000000000002,1.2441603701536123603,-0.27357997115360089277,4.546148550365419853,0.029820551994177726038,-4.5885854780671098997
0.03200000000000002,1.2438823926392318051,-0.28237457619311308026,4.5461788733887204404,0.030826184464130690313,-4.588585478067109894
0.03300000000000002,1.2435956219799834441,-0.2911662449488016305,4.546210204137157588,0.03183602538460688931,-4.588585478067109897
0.03400000000000002,1.2433000611600323176,-0.29995488159791701185,4.546242546888645231,0.032850213794546080132,-4.588585478067109892
0.035000000000000024,1.2429957132595488207,-0.3087403899508462931,4.5462759060604757333,0.033868889415003782713,-4.5885854780671098876
0.036000000000000025,1.2426825814550805045,-0.3175226734412578855,4.546310286210011397,0.034892192667915866747,-4.5885854780671098854
0.037000000000000026,1.2423606690199336743,-0.3263016351163612666,4.5463456920353946546,0.035920264694689704603,-4.5885854780671098824
0.03800000000000003,1.2420299793245646694,-0.33507717762728534908,4.5463821283762767605,0.036953247374616397673,-4.5885854780671098798
0.03900000000000003,1.241690515836980704,-0.3438492032195791787,4.5464196002145648053,0.037991283343098553525,-4.588585478067109875
0.04000000000000003,1.2413422821231501436,-0.3526176137238386685,4.546458112675186861,0.03903451600968806024,-4.588585478067109868
0.04100000000000003,1.2409852818474220916,-0.36138231054646309927,4.54649767102687507,0.040083089575928273553,-4.588585478067109863
0.04200000000000003,1.2406195187729551516,-0.3701431946605451384,4.546538280682966471,0.041137149052995000997,-4.5885854780671098607
0.04300000000000003,1.2402449967621552329,-0.37890016659689815365,4.54657994720222137,0.042196840279130636034,-4.5885854780671098594
0.04400000000000003,1.2398617197771222561,-0.38765312643522462088,4.5466226762896590308,0.043262309936865763305,-4.5885854780671098616
0.04500000000000003,1.2394696918801056211,-0.39640197379542944808,4.5466664737974104874,0.04433370557002252466,-4.588585478067109864
0.046000000000000034,1.239068917233968285,-0.405146607829082063,4.5467113457255882423,0.045411175600494003793,-4.588585478067109868
0.047000000000000035,1.2386594001026593039,-0.41388692721103113382,4.5467572982231726315,0.046494869344793855603,-4.588585478067109866
0.048000000000000036,1.2382411448516946802,-0.42262283013117581725,4.546804337588914623,0.047584937030370374794,-4.588585478067109863
0.04900000000000004,1.2378141559486463614,-0.43135421428639745176,4.546852470272254808,0.04868152981167916654,-4.588585478067109862
0.05000000000000004,1.2373784379636392221,-0.44008097687265563757,4.5469017028742583406,0.049784799786008550854,-4.5885854780671098633
0.05100000000000004,1.2369339955698558688,-0.44880301457725266888,4.5469520421485655785,0.05089490000905180103,-4.5885854780671098616
0.05200000000000004,1.2364808335440490928,-0.45752022357127030726,4.5470034950023581672,0.052011984510220285683,-4.588585478067109858
0.05300000000000004,1.2360189567670617993,-0.4662324995021829088,4.547056068497340304,0.05313620830769155353,-4.5885854780671098572
0.05400000000000004,1.2355483702243542332,-0.47493973748665094134,4.5471097698507349145,0.05426772742318636987,-4.588585478067109858
0.05500000000000004,1.2350690790065383195,-0.4836418321034989505,4.54716460643629447,0.055406698896468684166,-4.5885854780671098524
0.05600000000000004,1.2345810883099189318,-0.49233867738688205683,4.547220585785326165,0.05655328079956247911,-4.5885854780671098516
0.057000000000000044,1.2340844034370418986,-0.5010301668196450891,4.547277715587731161,0.057707632250679423082,-4.588585478067109851
0.058000000000000045,1.2335790297972485519,-0.5097161933268784803,4.5473360036930576193,0.0588699134278512202,-4.588585478067109855
0.059000000000000045,1.2330649729072366204,-0.51839664926967507567,4.5473954581115672087,0.060040285582260525043,-4.588585478067109859
0.060000000000000046,1.2325422383916272633,-0.5270714264390920233,4.547456087015314796,0.061218911051264263177,-4.5885854780671098564
0.06100000000000005,1.2320108319835380382,-0.53574041605032193906,4.5475178987392410016,0.062405953271103173057,-4.5885854780671098533
0.06200000000000005,1.2314707595251615903,-0.5444035087370775573,4.5475809017822773042,0.06360157678929136073,-4.588585478067109855
0.06300000000000004,1.2309220269683498512,-0.55306059454619410073,4.5476451048084633733,0.06480594727667963541,-4.5885854780671098572
0.06400000000000004,1.2303646403752035213,-0.56171156293245362,4.547710516648076298,0.066019231539186371784,-4.588585478067109853
0.06500000000000004,1.2297986059186666176,-0.57035630275363557345,4.5477771462987713834,0.06724159752918962402,-4.5885854780671098524
0.06600000000000004,1.2292239298831258547,-0.57899470226579793664,4.5478450029267341575,0.06847321435657419675,-4.588585478067109847
0.06700000000000005,1.2286406186650146281,-0.5876266491187931449,4.5479140958678432594,0.06971425229942735958,-4.588585478067109846
0.06800000000000005,1.2280486787734213628,-0.5962520303520231939,4.5479844346288438384,0.07096488281437687544,-4.5885854780671098464
0.06900000000000005,1.2274481168307019844,-0.6048707323904382339,4.548056028888531113,0.072225278546564996877,-4.588585478067109842
0.07000000000000005,1.2268389395730962685,-0.61348264104078301177,4.5481288884989437196,0.07349561333925207106,-4.588585478067109845
0.07100000000000005,1.2262211538513478185,-0.62208764148809552586,4.5482030234865664722,0.07477606224304338197,-4.5885854780671098446
0.07200000000000005,1.2255947666313274155,-0.63068561829246227437,4.548278444053542165,0.076066801524732847725,-4.5885854780671098438
0.07300000000000005,1.2249597849946594846,-0.63927645538603448673,4.5483551605788920193,0.07736800867575718258,-4.5885854780671098472
0.07400000000000005,1.224316216139351411,-0.6478600360703097407,4.548433183619744388,0.07867986242025412641,-4.5885854780671098438
0.07500000000000005,1.2236640673804254404,-0.656436243013683375,4.5485125239125713203,0.08000254272271833989,-4.58858547806710984
0.07600000000000005,1.2230033461505528921,-0.6650049582492741179,4.5485931923744325747,0.081336230795248561044,-4.588585478067109841
0.07700000000000005,1.2223340600006904064,-0.67356606317302835675,4.5486752001042266747,0.08268110910437961866,-4.5885854780671098446
0.07800000000000006,1.2216562166007179478,-0.68211943854210748073,4.548758558383948585,0.08403736137749289965,-4.5885854780671098438
0.07900000000000006,1.2209698237400782755,-0.6906649644735627324,4.5488432786799535864,0.08540517260879887239,-4.5885854780671098403
0.08000000000000006,1.2202748893284175953,-0.6992025204433020069,4.548929372644226914,0.086784729064885274226,-4.588585478067109838
0.08100000000000006,1.2195714213962270969,-0.7077319852853530378,4.5490168521156587275,0.08817621828982458117,-4.588585478067109838
0.08200000000000006,1.2188594280954850762,-0.7162532371914274099,4.54910572912132396,0.08957982910983438958,-4.5885854780671098373
0.08300000000000006,1.2181389177002993427,-0.72476615371078983573,4.5491960158777666077,0.090995751637484354486,-4.588585478067109839
0.08400000000000006,1.2174098986075496035,-0.7332706117504371298,4.5492877247922879932,0.09242417727544334676,-4.588585478067109841
0.08500000000000006,1.2166723793375295103,-0.74176648757559130755,4.5493808684642385444,0.09386529871976051191,-4.5885854780671098455
0.08600000000000006,1.2159263685345880558,-0.7502536568105112314,4.5494754596863126173,0.095319309962673936844,-4.5885854780671098416
0.08700000000000006,1.2151718749677699956,-0.75873199443962721476,4.549571511445845894,0.09678640629494065751,-4.58858547806710985
0.08800000000000006,1.2144089075314549742,-0.7672013748090029841,4.5496690369261148595,0.09826678430768177048,-4.5885854780671098555
0.08900000000000007,1.2136374752459950225,-0.7756616716281293872,4.549768049507637888,0.09976064189373644448,-4.5885854780671098564
0.09000000000000007,1.2128575872583500932,-0.7841127579720542191,4.54986856276947743,0.101268178248518664606,-4.5885854780671098616
0.09100000000000007,1.212069252842721298,-0.79255450628385252116,4.5499705904905428057,0.102789593870370582237,-4.588585478067109866
0.09200000000000007,1.2112724814011815015,-0.80098678837744168767,4.550074146650893097,0.1043250905604063872,-4.5885854780671098702
0.09300000000000007,1.2104672824643029257,-0.8094094754407456945,4.550179245433039629,0.105874871421840666216,-4.5885854780671098715
0.09400000000000007,1.2096536656917814147,-0.81782243803921273785,4.550285901223247515,0.10743914085879526303,-4.588585478067109877
0.09500000000000007,1.2088316408730570026,-0.8262255461196905475,4.5503941286128357503,0.10901810457457871055,-4.5885854780671098785
0.09600000000000007,1.2080012179279304256,-0.83461866901466360674,4.5505039423994753153,0.11061196956943236456,-4.5885854780671098854
0.09700000000000007,1.2071624069071752143,-0.84300167544685648325,4.5506153575884847554,0.112220944137737431816,-4.5885854780671098923
0.09800000000000007,1.2063152179931449982,-0.8513744335342074378,4.550728389394122701,0.113845237864677152497,-4.588585478067109897
0.09900000000000007,1.2054596615003756485,-0.85973681079521644327,4.5508430532408767695,0.11548506162234846876,-4.5885854780671099097
0.10000000000000007,1.2045957478761818861,-0.8680886741546717063,4.550959364764748302,0.117140627565317587233,-4.5885854780671099158
0.10100000000000008,1.2037234877012479697,-0.87642988994975874214,4.55107733981453238,0.11881214912561392354,-4.5885854780671099223
0.10200000000000008,1.2028428916902120837,-0.8847603239365560076,4.5511969944530925466,0.12049984100715700207,-4.588585478067109924
0.10300000000000008,1.2019539706922440344,-0.89307984129692104936,4.551318344958629673,0.12220391917961097387,-4.588585478067109928
0.10400000000000008,1.2010567356916158644,-0.9013883066457710759,4.5514414078259443908,0.12392460087166150984,-4.588585478067109934
0.10500000000000008,1.2001511978082649862,-0.9096855840387618043,4.5515661997676925064,0.12566210456370992564,-4.5885854780671099383
0.10600000000000008,1.1992373682983494371,-0.91797153698036837975,4.5516927377156328224,0.12741664997997949878,-4.5885854780671099422
0.10700000000000008,1.1983152585547948508,-0.92624602843237210237,4.551821038821866764,0.12918845808002904759,-4.588585478067109945
0.10800000000000008,1.1973848801078327365,-0.9345089208227566363,4.5519511204600692235,0.13097775104966895564,-4.5885854780671099487
0.10900000000000008,1.1964462446255296574,-0.94276007605501730715,4.552083000226710018,0.13278475229127494484,-4.5885854780671099505
0.11000000000000008,1.1954993639143068902,-0.9509993555178870247,4.55221669594226536,0.13460968641349502468,-4.5885854780671099552
0.11100000000000008,1.1945442499194501502,-0.9592266200954822957,4.5523522256524187276,0.13645277922034517523,-4.588585478067109956
0.11200000000000009,1.193580914725608958,-0.9674417301778727149,4.552489607629250526,0.13831425769968945662,-4.5885854780671099617
0.11300000000000009,1.1926093705572852243,-0.97564454567207724187,4.5526288603724159153,0.14019435001110037838,-4.588585478067109971
0.11400000000000009,1.1916296297793106232,-0.9838349260134904887,4.5527700026103101903,0.14209328547309550857,-4.5885854780671099778
0.11500000000000009,1.1906417048973123231,-0.9920127301777421568,4.5529130533012210826,0.14401129454974645426,-4.588585478067109982
0.11600000000000009,1.18964560855816664,-1.00017781669299267,4.5530580316344673565,0.14594860883665650257,-4.588585478067109989
0.11700000000000009,1.1886413535504401765,-1.0083300436526679577,4.5532049570315230643,0.14790546104630337489,-4.588585478067109991
0.11800000000000009,1.1876289528048180047,-1.0164692687286362438,4.5533538491471268277,0.14988208499274371582,-4.588585478067109997
0.11900000000000009,1.1866084193945184502,-1.0245953491848295951,4.5535047278703755,0.15187871557567611351,-4.588585478067110002
0.12000000000000009,1.1855797665356940314,-1.0327081418913128781,4.5536576133258015726,0.15389558876385962892,-4.588585478067110006
0.1210000000000001,1.1845430075878181045,-1.0408075033388026659,4.553812525874433674,0.15593294157788499836,-4.5885854780671100064
0.1220000000000001,1.1834981560540567642,-1.0488932896536385178,4.5539694861148395178,0.15799101207229586673,-4.588585478067110014
0.1230000000000001,1.1824452255816255458,-1.0569653566132089467,4.5541285148841506424,0.16007003931705760744,-4.588585478067110018
0.1240000000000001,1.1813842299621304729,-1.0650235596618342601,4.554289633259068297,0.16217026337837149061,-4.5885854780671100225
0.12500000000000008,1.1803151831318929926,-1.0730677539271083401,4.5544528625568498088,0.16429192529883217178,-4.588585478067110024
0.12600000000000008,1.1792380991722583397,-1.0810977942367012997,4.5546182243362747827,0.16643526707692669138,-4.5885854780671100385
0.12700000000000009,1.1781529923098868664,-1.0891135351356248163,4.5547857403985904656,0.16860053164587339806,-4.5885854780671100463
0.12800000000000009,1.1770598769170278744,-1.0971148309039618105,4.5549554327884356248,0.1707879628517994395,-4.5885854780671100545
0.1290000000000001,1.1759587675117754845,-1.1051015355750619968,4.555127323794742267,0.1729978054312556999,-4.5885854780671100623
0.1300000000000001,1.1748496787583060781,-1.1130735029542046837,4.5553014359516145453,0.17523030498806830604,-4.5885854780671100723
0.1310000000000001,1.1737326254670968406,-1.1210305866377300606,4.5554777920391841812,0.17748570796952607217,-4.5885854780671100814
0.1320000000000001,1.1726076225951249391,-1.1289726400326400457,4.555656415084441746,0.17976426164190350891,-4.588585478067110095
0.1330000000000001,1.1714746852460468647,-1.1368995163766696191,4.5558373283620431297,0.18206621406531928283,-4.5885854780671101075
0.1340000000000001,1.1703338286703574672,-1.1448110687588294034,4.5560205553950905385,0.18439181406793028028,-4.5885854780671101166
0.1350000000000001,1.1691850682655282117,-1.1527071501404200839,4.5562061199558873538,0.18674131121946170346,-4.5885854780671101265
0.1360000000000001,1.1680284195761241844,-1.1605876133765190981,4.5563940460666661875,0.18911495580407390596,-4.588585478067110132
0.1370000000000001,1.1668638982938993755,-1.1684523112379398445,4.5565843580002894763,0.19151299879256696174,-4.5885854780671101417
0.1380000000000001,1.1656915202578697673,-1.1763010964336634887,4.5567770802809219478,0.19393569181392425378,-4.588585478067110154
0.1390000000000001,1.1645113014543637532,-1.1841338216337432572,4.556972237684674299,0.19638328712619666696,-4.588585478067110161
0.1400000000000001,1.1633232580170494165,-1.1919503394926809295,4.5571698552402174344,0.19885603758672927478,-4.588585478067110169
0.1410000000000001,1.1621274062269381977,-1.1997505026732750444,4.5573699582293666,0.20135419662173271982,-4.58858547806711018
0.1420000000000001,1.1609237625123644766,-1.2075341638709401475,4.5575725721876347595,0.20387801819520180525,-4.5885854780671101855
0.1430000000000001,1.1597123434489406014,-1.2153011758384962028,4.557777722904754572,0.20642775677718413647,-4.5885854780671102
0.1440000000000001,1.1584931657594868927,-1.2230513914114270986,4.557985436425168304,0.2090036673114019819,-4.588585478067110203
0.1450000000000001,1.1572662463139361553,-1.2307846635336069604,4.558195739048485051,0.21160600518223085471,-4.5885854780671102137
0.1460000000000001,1.1560316021292122307,-1.2385008452834927888,4.5584086573299046116,0.21423502618103865918,-4.5885854780671102284
0.1470000000000001,1.1547892503690821238,-1.2461997899007817112,4.5586242180806073837,0.21689098647188958955,-4.5885854780671102415
0.1480000000000001,1.153539208343981242,-1.2538813508135309336,4.558842448368109652,0.21957414255661732185,-4.5885854780671102523
0.1490000000000001,1.1522814935108112824,-1.2615453816657382466,4.5590633755165836313,0.22228475123927239514,-4.5885854780671102597
