t,phi1,v1,phi2,v2,energy
0.0,6.236209030645415652,0.0,2.2281642157897976197,0.0,-13.604098451560932707
0.001,6.2362077314871802694,-0.0025983058353400727023,2.2281594917240752707,-0.009448129004667833022,-13.604098451560932703
0.002,6.2362038340762867192,-0.0051964840454084431044,2.228145319541548457,-0.018896228728788487187,-13.604098451560932701
0.003,6.2361973386041732476,-0.0077944070040320638324,2.2281216992861383503,-0.028344269890879348428,-13.604098451560932698
0.004,6.236188245389905099,-0.010391947083235647223,2.228088631031048462,-0.03779222320758759696,-13.604098451560932695
0.005,6.236176554880176769,-0.012988976652341669765,2.2280461148787669805,-0.04724005939275676628,-13.604098451560932694
0.006,6.2361622676493151576,-0.015585368077071725878,2.2279941509610700406,-0.056687749156495296405,-13.604098451560932692
0.007,6.236145384399283617,-0.01818099371864968057,2.2279327394390259236,-0.06613526320424774604,-13.604098451560932692
0.008,6.236125905959686896,-0.020775725932907070283,2.2278618805030001838,-0.07558257223586932851,-13.604098451560932688
0.009000000000000001,6.236103833287776981,-0.023369437069391200876,2.2277815743726616985,-0.085029646944704436154,-13.604098451560932687
0.010000000000000002,6.2360791674684598242,-0.02596199947047639155,2.2276918212969896394,-0.09447645801666981789,-13.604098451560932684
0.011000000000000003,6.2360519097143029574,-0.028553285470478812919,2.2275926215542813543,-0.10392297612934307486,-13.604098451560932681
0.012000000000000004,6.2360220613655439935,-0.031143167394775367127,2.2274839754521611607,-0.11336917195105713876,-13.604098451560932683
0.013000000000000005,6.2359896238901000036,-0.033731517558927057346,2.2273658833275900408,-0.12281501614000139767,-13.604098451560932682
0.014000000000000005,6.2359545988835777684,-0.036318208267807293452,2.227238345546876231,-0.13226047934333013424,-13.60409845156093268
0.015000000000000006,6.2359169880692849022,-0.03890311181473558002,2.2271013625056866989,-0.14170553219627894083,-13.604098451560932678
0.016000000000000007,6.2358767932982418335,-0.04148610048061703222,2.2269549346290595012,-0.15115014532128977658,-13.604098451560932675
0.017000000000000008,6.2358340165491946486,-0.04406704653308816427,2.2267990623714170105,-0.16059428932714533098,-13.6040984515609326725
0.01800000000000001,6.235788659928628788,-0.046645822225669394497,2.2266337462165800031,-0.1700379348081133589,-13.604098451560932671
0.01900000000000001,6.235740725670783577,-0.049222299796924710146,2.2264589866777825978,-0.17948105234310165169,-13.604098451560932669
0.02000000000000001,6.235690216137667605,-0.051796351469628934106,2.2262747842976880334,-0.18892361249482430916,-13.604098451560932664
0.02100000000000001,6.2356371338190749233,-0.05436784944994303481,2.2260811396484052743,-0.19836558580897997728,-13.604098451560932662
0.022000000000000013,6.23558148133260207,-0.056936665926597919617,2.2258780533315064315,-0.2078069428134427161,-13.6040984515609326595
0.023000000000000013,6.235523261423665905,-0.059502673070087150698,2.225665525978044987,-0.21724765401746616294,-13.604098451560932658
0.024000000000000014,6.235462476965522245,-0.062065743031869021528,2.2254435582485748051,-0.22668768991090165518,-13.604098451560932654
0.025000000000000015,6.235399130959285296,-0.064625747943578430697,2.2252121508331699205,-0.23612702096343097761,-13.6040984515609326535
0.026000000000000016,6.2353332265339478646,-0.06718255991624898856,2.224971304451445085,-0.24556561762381439877,-13.604098451560932652
0.027000000000000017,6.2352647669464023442,-0.06973605103954579097,2.2247210198525770582,-0.255003450319154661,-13.604098451560932649
0.028000000000000018,6.235193755581462464,-0.072286093381009292714,2.2244612978153266258,-0.26444048945417758864,-13.604098451560932646
0.02900000000000002,6.235120195951885785,-0.07483255898531071223,2.2241921391480613298,-0.27387670541052997882,-13.604098451560932645
0.03000000000000002,6.235044091698396938,-0.077375319873519397094,2.2239135446887788906,-0.2833120685460954397,-13.604098451560932644
0.03100000000000002,6.2349654465897115852,-0.07991424804238257873,2.223625515305131305,-0.29274654919432883965,-13.604098451560932641
0.03200000000000002,6.234884264522561098,-0.082449215463617942696,2.2233280518944495987,-0.30218011766361003252,-13.60409845156093264
0.03300000000000002,6.2348005495217179352,-0.08498009408321943949,2.2230211553837692176,-0.31161274423661752266,-13.604098451560932639
0.03400000000000002,6.2347143057400217074,-0.08750675582077675884,2.2227048267298560326,-0.3210443991697227339,-13.604098451560932639
0.035000000000000024,6.234625537458405916,-0.09002907256880888866,2.2223790669192329415,-0.33047505269240554638,-13.604098451560932637
0.036000000000000025,6.2345342490859253512,-0.09254691619211217789,2.2220438769682070432,-0.33990467500669176517,-13.604098451560932635
0.037000000000000026,6.234440445159784134,-0.095060158527123320404,2.2216992579228973632,-0.34933323628661318408,-13.604098451560932634
0.03800000000000003,6.234344130345364389,-0.09756867138129767526,2.2213452108592631096,-0.3587607066776909088,-13.604098451560932632
0.03900000000000003,6.2342453094362555274,-0.10007232653250333621,2.2209817368831324298,-0.3681870562964426015,-13.604098451560932632
0.04000000000000003,6.2341439873542841333,-0.1025709957284313612,2.2206088371302316526,-0.37761225522991431172,-13.6040984515609326274
0.04100000000000003,6.2340401691495444295,-0.10506455068602257061,2.220226512766214981,-0.38703627353523755472,-13.6040984515609326274
0.04200000000000003,6.2339338600004293033,-0.10755286309091132009,2.2198347649866946192,-0.39645908123921230138,-13.6040984515609326274
0.04300000000000003,6.2338250652136618863,-0.1100358045968866518,2.2194335950172713013,-0.4058806483379165413,-13.604098451560932627
0.04400000000000003,6.2337137902243276626,-0.1125132468253712253,2.2190230041135651964,-0.41530094479634308162,-13.604098451560932627
0.04500000000000003,6.2336000405959070864,-0.114985061364918426526,2.2186029935612471646,-0.4247199405480642432,-13.604098451560932624
0.046000000000000034,6.2334838220203086963,-0.11745111977072805091,2.218173564676070333,-0.43413760549492511615,-13.604098451560932624
0.047000000000000035,6.2333651403179027024,-0.119911293564180953604,2.217734718803901963,-0.44355390950676603555,-13.604098451560932623
0.048000000000000036,6.2332440014375550302,-0.12236545423239305724,2.2172864573207555843,-0.45296882242117493845,-13.604098451560932621
0.04900000000000004,6.2331204114566618,-0.124813473227789104645,2.2168287816328233555,-0.4623823140432702624,-13.6040984515609326205
0.05000000000000004,6.232994376581184222,-0.12725522196769654073,2.21636169317650863,-0.47179435414551504588,-13.604098451560932618
0.05100000000000004,6.2328659031456838907,-0.12969057183395990499,2.2158851934184586921,-0.48120491246756289043,-13.604098451560932618
0.05200000000000004,6.2327349976133584494,-0.13211939417257611271,2.2153992838555976292,-0.49061395871613644256,-13.604098451560932617
0.05300000000000004,6.232601666576077614,-0.1345415602933509997,2.2149039660151593092,-0.50002146256493905575,-13.604098451560932615
0.05400000000000004,6.2324659167544195224,-0.136956941469577502,2.214399241454720431,-0.509427393654600289,-13.604098451560932613
0.05500000000000004,6.2323277549977074037,-0.13936540893773583889,2.21388511176223361,-0.51883172159265590097,-13.6040984515609326136
0.05600000000000004,6.232187188284046529,-0.14176683389721606338,2.2133615785560604686,-0.5282344159535629952,-13.604098451560932612
0.057000000000000044,6.2320442237203614324,-0.1441610875100633414,2.2128286434850046914,-0.5376354462787509736,-13.604098451560932612
0.058000000000000045,6.2318988685424333714,-0.14654804090074631672,2.2122863082283450123,-0.5470347820767089542,-13.60409845156093261
0.059000000000000045,6.231751130114938012,-0.14892756515594891516,2.2117345744958680964,-0.5564323928231103069,-13.604098451560932609
0.060000000000000046,6.2316010159314833058,-0.15129953132438593737,2.211173444027901277,-0.5658282479609749622,-13.604098451560932608
0.06100000000000005,6.231448533614647542,-0.15366381041664278592,2.2106029185953451122,-0.57522231690087014596,-13.604098451560932606
0.06200000000000005,6.2312936909160175475,-0.15602027340503966794,2.2100229999997057207,-0.5846145690211501933,-13.604098451560932606
0.06300000000000004,6.231136495716227008,-0.15836879122352061052,2.209433690073126859,-0.5940049736682360922,-13.604098451560932605
0.06400000000000004,6.23097695602499489,-0.16070923476756762188,2.2088349906784216974,-0.6033935001569354085,-13.604098451560932601
0.06500000000000004,6.2308150799811639364,-0.1630414748941403267,2.2082269037091042565,-0.612780117770803242,-13.6040984515609326005
0.06600000000000004,6.2306508758527392056,-0.1653653824216413997,2.2076094310894204622,-0.6221647957625448612,-13.6040984515609326
0.06700000000000005,6.2304843520369266375,-0.16768082812990811675,2.2069825747743787765,-0.63154750335446066664,-13.604098451560932599
0.06800000000000005,6.2303155170601716107,-0.16998768276023033839,2.206346336749780362,-0.6409282097389341269,-13.604098451560932601
0.06900000000000005,6.23014437957819747,-0.1722858170153952354,2.2057007190322487364,-0.6503068840789633348,-13.604098451560932599
0.07000000000000005,6.229970948376043995,-0.17457510155975906153,2.205045723669258874,-0.6596834955087368264,-13.6040984515609326005
0.07100000000000005,6.229795232368105786,-0.17685540701934627311,2.2043813527391657092,-0.66905801313425430655,-13.6040984515609326
0.07200000000000005,6.2296172405981705324,-0.17912660398197629053,2.2037076083512319943,-0.678430406033992923,-13.604098451560932598
0.07300000000000005,6.2294369822394571423,-0.18138856299741819082,2.2030244926456554716,-0.68780064325961972835,-13.604098451560932597
0.07400000000000005,6.229254466594653706,-0.18364115457757361554,2.2023320077935953064,-0.6971686938367509689,-13.604098451560932596
0.07500000000000005,6.2290697030959552597,-0.18588424919668817272,2.20163015599719774,-0.70653452676575883857,-13.6040984515609325945
0.07600000000000005,6.228882701305101321,-0.18811771729159160555,2.200918939489620908,-0.7158981110226263325,-13.604098451560932596
0.07700000000000005,6.228693470913413177,-0.19034142926196699559,2.2001983605350587845,-0.7252594155598508354,-13.604098451560932596
0.07800000000000006,6.2285020217418308798,-0.19255525547064926131,2.1994684214287641933,-0.73461840930739707637,-13.604098451560932595
0.07900000000000006,6.2283083637409499367,-0.194759066243953208,2.1987291244970708444,-0.7439750611737000815,-13.604098451560932594
0.08000000000000006,6.228112506991057652,-0.19695273187203137818,2.1979804720974143398,-0.7533293400467187533,-13.604098451560932594
0.08100000000000006,6.2279144617021690977,-0.19913612260926194568,2.1972224666183521036,-0.7626812147950407033,-13.6040984515609325945
0.08200000000000006,6.2277142382140626828,-0.20130910867466689033,2.1964551104795821774,-0.7720306542690389641,-13.604098451560932595
0.08300000000000006,6.227511846996315286,-0.20347156025236068353,2.1956784061319608362,-0.78137762730208120245,-13.604098451560932594
0.08400000000000006,6.227307298648336927,-0.2056233474920297087,2.1948923560575189656,-0.7907221027117920565,-13.604098451560932593
0.08500000000000006,6.2271006038994049423,-0.2077643405094426335,2.194096962769477152,-0.8000640493013692143,-13.604098451560932592
0.08600000000000006,6.226891773608697633,-0.20989440938699194413,2.193292228812259429,-0.8094034358609538512,-13.604098451560932593
0.08700000000000006,6.2266808187653273597,-0.2120134241742668451,2.1924781567615056258,-0.81874023116905604076,-13.604098451560932593
0.08800000000000006,6.2264677504883730436,-0.21412125488865772047,2.1916547492240822622,-0.8280744039940357501,-13.604098451560932592
0.08900000000000007,6.226252580026912053,-0.21621777151599234562,2.190822008838091935,-0.83740592309564003176,-13.604098451560932591
0.09000000000000007,6.2260353187600514318,-0.21830284401120403102,2.1899799382728811384,-0.846734757226597016,-13.604098451560932594
0.09100000000000007,6.225815978196958446,-0.22037634229903187208,2.1891285402290464625,-0.85606087513426731064,-13.604098451560932594
0.09200000000000007,6.2255945699768904184,-0.22243813627475327161,2.188267817438439111,-0.8653842455623534097,-13.604098451560932593
0.09300000000000007,6.2253711058692238057,-0.22448809580494889337,2.1873977726641676794,-0.87470483725266770926,-13.604098451560932592
0.09400000000000007,6.225145597773482502,-0.22652609072830019735,2.186518408700599137,-0.88402261894695972764,-13.604098451560932592
0.09500000000000007,6.224918057719365325,-0.22855199085641969975,2.1856297283733579517,-0.89333755938880312345,-13.604098451560932591
0.09600000000000007,6.2246884978667726567,-0.2305656659747140918,2.1847317345393232964,-0.9026496273255431009,-13.60409845156093259
0.09700000000000007,6.2244569305058322028,-0.23256698584328034368,2.183824430086624279,-0.9119587915103047917,-13.604098451560932591
0.09800000000000007,6.224223368056923841,-0.23455582019783491106,2.1829078179346331323,-0.9212650207040631954,-13.604098451560932591
0.09900000000000007,6.2239878230707035224,-0.2365320387506761534,2.1819819010339563034,-0.93056828367777526164,-13.604098451560932591
0.10000000000000007,6.2237503082281261965,-0.23849551119168006413,2.1810466823664233797,-0.9398685492145746897,-13.604098451560932593
0.10100000000000008,6.2235108363404677214,-0.24044610718932940403,2.1801021649450737882,-0.94916578611203002153,-13.604098451560932594
0.10200000000000008,6.2232694203493457256,-0.24238369639177632003,2.1791483518141412054,-0.9584599631844665981,-13.604098451560932594
0.10300000000000008,6.2230260733267393964,-0.24430814842793852251,2.1781852460490356115,-0.96775104926535294634,-13.604098451560932597
0.10400000000000008,6.222780808475008151,-0.24621933290862908472,2.1772128507563229293,-0.9770390132097521607,-13.604098451560932599
0.10500000000000008,6.222533639126909163,-0.24811711942771991848,2.1762311690737021742,-0.9863238238968388389,-13.604098451560932601
0.10600000000000008,6.2222845787456137075,-0.25000137756333897058,2.1752402041699800586,-0.9956054502324821274,-13.6040984515609326005
0.10700000000000008,6.2220336409247222905,-0.25187197687910117464,2.1742399592450429764,-1.0048838611518954296,-13.604098451560932601
0.10800000000000008,6.2217808393882785356,-0.2537287869253731832,2.1732304375298263069,-1.0141590256223533244,-13.604098451560932601
0.10900000000000008,6.2215261879907817837,-0.25557167724057189458,2.1722116422862809673,-1.0234309126459762383,-13.604098451560932599
0.11000000000000008,6.2212697007171983803,-0.25740051735249677836,2.1711835768073371447,-1.0326994912625834125,-13.6040984515609326
0.11100000000000008,6.221011391682971612,-0.25921517677969599467,2.1701462444168651438,-1.0419647305526146984,-13.6040984515609326
0.11200000000000009,6.220751275134030261,-0.2610155250328662889,2.1690996484696332754,-1.0512265996401217138,-13.604098451560932601
0.11300000000000009,6.220489365446795742,-0.26280143161628663592,2.1680437923512627205,-1.0604850676958288879,-13.604098451560932602
0.11400000000000009,6.2202256771281877906,-0.26457276602928559467,2.166978679478179297,-1.0697401039402649124,-13.604098451560932603
0.11500000000000009,6.2199602248156286646,-0.26632939776774232395,2.165904313297562061,-1.0789916776469651227,-13.604098451560932607
0.11600000000000009,6.219693023277045829,-0.26807119632562119907,2.1648206972872886692,-1.088239758145745316,-13.604098451560932607
0.11700000000000009,6.2194240874108730898,-0.26979803119653995744,2.1637278349558774302,-1.0974843148260475173,-13.604098451560932608
0.11800000000000009,6.219153432246050143,-0.27150977187537128938,2.162625729842425977,-1.1067253171403581957,-13.604098451560932611
0.11900000000000009,6.2188810729420205057,-0.2732062878598777797,2.1615143855165464821,-1.1159627346076994291,-13.604098451560932613
0.12000000000000009,6.2186070247887277923,-0.27488744865238009233,2.1603938055782973462,-1.1251965368171935096,-13.604098451560932615
0.1210000000000001,6.218331303206610309,-0.27655312376145828028,2.159263993658111284,-1.1344266934317014761,-13.604098451560932619
0.1220000000000001,6.2180539237465939344,-0.27820318270368608846,2.1581249534167197366,-1.1436531741915360612,-13.604098451560932621
0.1230000000000001,6.2177749020900832375,-0.27983749500539810754,2.156976688545073531,-1.1528759489182495222,-13.604098451560932621
0.1240000000000001,6.2174942540489508275,-0.28145593020448962201,2.1558192027642597154,-1.1620949875184968349,-13.604098451560932625
0.12500000000000008,6.2172119955655248723,-0.2830583578522489848,2.154652499825414494,-1.171310259987974711,-13.6040984515609326274
0.12600000000000008,6.216928142712574782,-0.28464464751522233657,2.1534765835096321836,-1.1805217364154369026,-13.60409845156093263
0.12700000000000009,6.2166427116932950012,-0.2862146687771104766,2.1522914576278701167,-1.1897293869867862472,-13.6040984515609326335
0.12800000000000009,6.2163557188412868954,-0.2877682912406976771,2.151097126020849414,-1.1989331819892439026,-13.604098451560932636
0.1290000000000001,6.2160671806205386866,-0.28930538452981222143,2.1498935925589515508,-1.2081330918155962137,-13.6040984515609326404
0.1300000000000001,6.2157771136254034187,-0.29082581829131843172,2.1486808611421106337,-1.2173290869685196513,-13.604098451560932646
0.1310000000000001,6.2154855345805749118,-0.2923294621971399394,2.147458935699701317,-1.2265211380649842491,-13.6040984515609326465
0.1320000000000001,6.2151924603410616784,-0.2938161859463139366,2.146227820190422273,-1.2357092158407359692,-13.60409845156093265
0.1330000000000001,6.2148979078921587687,-0.2952858592670761344,2.1449875186021751428,-1.2448932911548584104,-13.6040984515609326535
0.1340000000000001,6.214601894349417519,-0.29673835191897613865,2.1437380349519388853,-1.2540733349944142751,-13.6040984515609326595
0.1350000000000001,6.214304436958613164,-0.29817353369502294015,2.1424793732856394427,-1.2632493184791669981,-13.60409845156093266
0.1360000000000001,6.2140055530957102976,-0.29959127442386020195,2.1412115376780146456,-1.2724212128663829408,-13.604098451560932664
0.1370000000000001,6.213705260266826132,-0.3009914439719710119,2.1399345322324742752,-1.2815889895557145382,-13.6040984515609326665
0.1380000000000001,6.2134035761081915497,-0.30237391224591175405,2.1386483610809552032,-1.2907526200941647929,-13.604098451560932669
0.1390000000000001,6.213100518386109897,-0.30373854919457473706,2.1373530283837715229,-1.2999120761811334892,-13.6040984515609326725
0.1400000000000001,6.2127961049969135086,-0.30508522481147920424,2.1360485383294595962,-1.3090673296735455049,-13.604098451560932676
0.1410000000000001,6.212490353966917919,-0.30641380913709033302,2.1347348951346179304,-1.3182183525910615865,-13.6040984515609326795
0.1420000000000001,6.2121832834523737477,-0.30772417226116581795,2.1334121030437418014,-1.3273651171213719462,-13.604098451560932681
0.1430000000000001,6.2118749117394162253,-0.30901618432512961517,2.1320801663290525434,-1.3365075956255730356,-13.6040984515609326855
0.1440000000000001,6.211565257244012324,-0.3102897155244724108,2.1307390892903214194,-1.3456457606436278407,-13.604098451560932688
0.1450000000000001,6.211254338511905482,-0.31154463611117836003,2.1293888762546879898,-1.354779584899910038,-13.604098451560932692
0.1460000000000001,6.210942174218557886,-0.31278081639617762847,2.128029531576472894,-1.3639090413088323427,-13.604098451560932695
0.1470000000000001,6.210628783169090288,-0.31399812675182425044,2.1266610596369849625,-1.3730341029805593752,-13.604098451560932699
0.1480000000000001,6.2103141842982193333,-0.31519643761439880347,2.125283464844322573,-1.3821547432268053633,-13.6040984515609327055
