t,phi1,v1,phi2,v2,energy
0.0,0.8850283519199715343,0.0,2.4565560565534489967,0.0,-4.8278858060797613253
0.001,0.88502455464638986966,-0.0075945403785686648403,2.4565529503688630847,-0.006212383587308717343,-4.8278858060797613166
0.002,0.88501316286635370225,-0.015188999339051112987,2.4565436317286127932,-0.0124249401591461731,-4.8278858060797613075
0.003,0.88499417670199210454,-0.02278329545817926632,2.4565281003732239403,-0.018637842693078127746,-4.8278858060797612993
0.004,0.8849675963568621672,-0.03037734730232103402,2.4565063558702511612,-0.024851264152744072729,-4.8278858060797612893
0.005,0.8849334221159619546,-0.037971073422297581648,2.456478397614295316,-0.031065377480893313292,-4.827885806079761282
0.006,0.884891654345748643,-0.04556439234819973114,2.4564442248270278628,-0.037280355592420112352,-4.8278858060797612724
0.007,0.8848422934941618433,-0.053157222584203202733,2.4564038365572221955,-0.043496371367397582937,-4.8278858060797612624
0.008,0.88478534009065210893,-0.06074948260338241028,2.4563572316807919485,-0.049713597644110017064,-4.8278858060797612537
0.009000000000000001,0.88472079474621463137,-0.06834109084252252239,2.4563044089008362703,-0.055932207212083339383,-4.827885806079761245
0.010000000000000002,0.8846486581534281238,-0.0759319656969295024,2.4562453667476920672,-0.06215237280511337457,-4.827885806079761237
0.011000000000000003,0.88456893108649889635,-0.08352202551523784142,2.4561801035789932208,-0.06837426709429161812,-4.8278858060797612286
0.012000000000000004,0.8844816144013101249,-0.091111188594215699754,2.4561086175797367803,-0.074598062681028200965,-4.82788580607976122
0.013000000000000005,0.884386709035476316,-0.09869937317356717326,2.4560309067623561335,-0.080823932090071739235,-4.827885806079761213
0.014000000000000005,0.8842842160084029708,-0.106286497430731402845,2.4559469689668011606,-0.087052047762525761425,-4.827885806079761202
0.015000000000000006,0.88417413642135145226,-0.11387247947567824651,2.4558568018606253712,-0.0932825820488614065,-4.827885806079761193
0.016000000000000007,0.884056471457509058,-0.121457237345700235654,2.4557604029390800334,-0.099515707201926087296,-4.8278858060797611835
0.017000000000000008,0.88393122238206430315,-0.12904068900020053862,2.455657769525215294,-0.10575159536994781538,-4.8278858060797611744
0.01800000000000001,0.8837983905422874178,-0.13662275231547665687,2.4555488987699882989,-0.111990418589534884366,-4.8278858060797611644
0.01900000000000001,0.88365797736761606234,-0.14420334507949958133,2.4554337876523783131,-0.118232348778670610564,-4.8278858060797611553
0.02000000000000001,0.8835099843697462667,-0.15178238498668813858,2.4553124329795088525,-0.124477557729702831404,-4.8278858060797611453
0.02100000000000001,0.8833544131427285973,-0.15935978963267825904,2.4551848313867768259,-0.13072621710232786355,-4.827885806079761133
0.022000000000000013,0.88319126536306955753,-0.1669354765090869023,2.455050979337988696,-0.13697849841656862455,-4.827885806079761125
0.023000000000000013,0.8830205427898382271,-0.17450936299827037672,2.454910873125503669,-0.14323457304574662409,-4.827885806079761115
0.024000000000000014,0.88284224726477814597,-0.1820813663680767941,2.4547645088703839097,-0.14949461220944753218,-4.8278858060797611054
0.025000000000000015,0.8826563807124244488,-0.18965140376659240293,2.4546118825225517995,-0.15575878696648003459,-4.8278858060797610967
0.026000000000000016,0.8824629451402262565,-0.19721939221688154668,2.4544529898609542358,-0.16202726820782768741,-4.8278858060797610868
0.027000000000000017,0.8822619426386743306,-0.20478524861171999724,2.4542878264937339845,-0.1683002266495934855,-4.8278858060797610746
0.028000000000000018,0.8820533753814339982,-0.21234888970832141715,2.454116387858408091,-0.17457783282593686137,-4.8278858060797610638
0.02900000000000002,0.88183724562548335374,-0.21991023212305670751,2.453938669222053359,-0.18086025708200283441,-4.8278858060797610534
0.03000000000000002,0.88161355571125674514,-0.22746919232616600257,2.4537546656814989041,-0.18714766956684303223,-4.8278858060797610425
0.03100000000000002,0.8813823080627935519,-0.2350256866364630756,2.4535643721635257894,-0.19344024022632830938,-4.827885806079761033
0.03200000000000002,0.8811435051878922622,-0.24257963121603192513,2.4533677834250737536,-0.19973813879605269118,-4.8278858060797610213
0.03300000000000002,0.8808971496782698579,-0.25013094206491531427,2.4531648940534550403,-0.20604153479422837327,-4.8278858060797610113
0.03400000000000002,0.8806432442097265149,-0.25767953501579504065,2.4529556984665753354,-0.21235059751457151127,-4.827885806079761001
0.035000000000000024,0.88038179154231562765,-0.26522532572866371878,2.4527401909131618242,-0.2186654960191785374,-4.8278858060797609913
0.036000000000000025,0.88011279452051916573,-0.27276822968548786107,2.452518365472998378,-0.22498639913139274492,-4.8278858060797609814
0.037000000000000026,0.87983625607342837247,-0.2803081621848620494,2.4522902160571678767,-0.23131347542866088431,-4.8278858060797609723
0.03800000000000003,0.87955217921492981337,-0.28784503833665399242,2.4520557364083016823,-0.23764689323537951859,-4.8278858060797609627
0.03900000000000003,0.87926056704389678436,-0.29537877305664027075,2.45181492010083627,-0.24398682061573088977,-4.8278858060797609523
0.04000000000000003,0.878961422744386089,-0.3029092810611325757,2.4515677605412770287,-0.2503334253665080511,-4.8278858060797609423
0.04100000000000003,0.87865474958584019433,-0.31043647686159425426,2.451314250968469243,-0.25668687500992902456,-4.8278858060797609298
0.04200000000000003,0.87834055092329477507,-0.31796027475924697618,2.4510543844538762645,-0.26304733678643974667,-4.8278858060797609194
0.04300000000000003,0.878018830197591656,-0.32548058883966734777,2.4507881539018648888,-0.26941497764750557052,-4.827885806079760906
0.04400000000000003,0.877689590935597163,-0.33299733296737329998,2.4505155520499979432,-0.27578996424839109553,-4.827885806079760897
0.04500000000000003,0.87735283675042589316,-0.34051042078040008563,2.450236571469334105,-0.28217246294092810134,-4.827885806079760887
0.046000000000000034,0.87700857134166991346,-0.34801976568486572662,2.4499512045647349532,-0.2885626397662713669,-4.827885806079760877
0.047000000000000035,0.8766567984956333999,-0.35552528084952575823,2.449659443575179274,-0.29496066044764216043,-4.827885806079760865
0.048000000000000036,0.87629752208557272703,-0.3630268792003171234,2.449361280574084627,-0.3013666903830591907,-4.827885806079760856
0.04900000000000004,0.87593074607194201944,-0.37052447341489107725,2.4490567074696361878,-0.30778089463805681551,-4.8278858060797608443
0.05000000000000004,0.8755564745026441753,-0.3780179759171349677,2.4487457160051228791,-0.31420343793839030784,-4.827885806079760835
0.05100000000000004,0.8751747115132873741,-0.38550729887168276637,2.4484282977592808023,-0.32063448466272798595,-4.827885806079760824
0.05200000000000004,0.8747854613274470799,-0.3929923541784142288,2.4481044441466439834,-0.32707419883533001874,-4.8278858060797608127
0.05300000000000004,0.87438872825693355007,-0.4004730534669425726,2.4477741464179024482,-0.33352274411871372364,-4.8278858060797608023
0.05400000000000004,0.8739845167020648633,-0.40794930809109056677,2.447437395660267638,-0.33998028380630517976,-4.827885806079760793
0.05500000000000004,0.87357283115194547693,-0.41542102912335493488,2.4470941827978451805,-0.34644698081507698494,-4.8278858060797607823
0.05600000000000004,0.8731536761847503253,-0.4228881273493589816,2.4467444985920150304,-0.35292299767817199126,-4.827885806079760772
0.057000000000000044,0.872727056468014472,-0.43035051326229335886,2.446388333641818993,-0.35940849653751286044,-4.827885806079760763
0.058000000000000045,0.87229297675892832737,-0.43780809705734489726,2.4460256783843556461,-0.36590363913639728575,-4.8278858060797607502
0.059000000000000045,0.87185144190463844223,-0.44526078862611343545,2.4456565230951826729,-0.37240858681207873417,-4.82788580607976074
0.060000000000000046,0.8714024568425538923,-0.45270849755101658798,2.445280857888726622,-0.37892350048833256957,-4.8278858060797607277
0.06100000000000005,0.87094602660065826243,-0.46015113309968240109,2.4448986727187001083,-0.3854485406680074235,-4.827885806079760718
0.06200000000000005,0.87048215629782724526,-0.46758860421932985392,2.444509957378526472,-0.39198386742556168798,-4.8278858060797607064
0.06300000000000004,0.870010851144151865,-0.47502081953113717104,2.4441147015017719035,-0.39852964039958501126,-4.827885806079760696
0.06400000000000004,0.8695321164412673392,-0.4824476873245979212,2.443712894562585061,-0.40508601878530468512,-4.827885806079760685
0.06500000000000004,0.8690459575826875902,-0.48986911555186488532,2.4433045258761441844,-0.41165316132707681978,-4.8278858060797606743
0.06600000000000004,0.86855238005414541955,-0.49728501182208168684,2.4428895845991117272,-0.4182312263108622093,-4.8278858060797606605
0.06700000000000005,0.86805138943393835585,-0.50469528339570218523,2.4424680597300965207,-0.42482037155668679967,-4.8278858060797606466
0.06800000000000005,0.8675429913932801903,-0.5120998371787976437,2.4420399401101234849,-0.43142075441108667798,-4.827885806079760635
0.06900000000000005,0.86702719169665821086,-0.51949857971735169144,2.441605214423110902,-0.43803253173953751056,-4.8278858060797606245
0.07000000000000005,0.8665039962021961473,-0.52689141719154310926,2.44116387119635527,-0.44465585991886836552,-4.827885806079760615
0.07100000000000005,0.8659734108620228398,-0.53427825541001647876,2.4407158988010237476,-0.4512908948296598638,-4.827885806079760602
0.07200000000000005,0.86543544172264664263,-0.54165899980414074303,2.4402612854526542095,-0.4579377918486266119,-4.8278858060797605906
0.07300000000000005,0.86489009492533557586,-0.5490335554222557385,2.43980001921166293,-0.4645967058409838773,-4.8278858060797605802
0.07400000000000005,0.86433737670650323613,-0.5564018269239067669,2.439332087983859903,-0.47126779115279847753,-4.8278858060797605694
0.07500000000000005,0.8637772933981004785,-0.56376371857406728616,2.4388574795209718245,-0.477951201603323863,-4.8278858060797605577
0.07600000000000005,0.86320985142801288237,-0.57111913423734980943,2.4383761814211727416,-0.48464709047731938257,-4.8278858060797605494
0.07700000000000005,0.86263505732046401157,-0.5784679773722051133,2.4378881811296223968,-0.49135561051735373024,-4.8278858060797605364
0.07800000000000006,0.86205291769642448127,-0.5858101510251098646,2.4373934659390122709,-0.49807691391609258265,-4.8278858060797605264
0.07900000000000006,0.8614634392740268432,-0.59314555782474278717,2.4368920229901193508,-0.5048111523085704449,-4.827885806079760515
0.08000000000000006,0.86086662886898630023,-0.60047409997614950214,2.43638383927236763,-0.5115584767644467339,-4.827885806079760503
0.08100000000000006,0.86026249339502726155,-0.60779567925489618254,2.4358689016243973628,-0.5183190377802461385,-4.8278858060797604913
0.08200000000000006,0.8596510398643157502,-0.6151101970012121789,2.4353471967346420849,-0.5250929852715833056,-4.8278858060797604796
0.08300000000000006,0.85903227538789767286,-0.6224175541141217793,2.4348187111419134186,-0.5318804685653719128,-4.8278858060797604683
0.08400000000000006,0.8584062071761429634,-0.62971765104556528267,2.4342834312359936746,-0.5386816363920181992,-4.827885806079760457
0.08500000000000006,0.85777284253919561116,-0.63701038779450957247,2.4337413432582362697,-0.5454966368775990367,-4.8278858060797604458
0.08600000000000006,0.8571321888874295829,-0.6442956639010483912,2.4331924333021739736,-0.5523256175360246357,-4.827885806079760434
0.08700000000000006,0.8564842537319106503,-0.65157337844049252856,2.4326366873141349995,-0.55916872526118599045,-4.8278858060797604237
0.08800000000000006,0.8558290446848641319,-0.65884343001745014563,2.4320740910938669582,-0.56602610631908718174,-4.827885806079760411
0.08900000000000007,0.85516656946014855945,-0.6661057167598974722,2.4315046302951686828,-0.57289790633996266647,-4.827885806079760398
0.09000000000000007,0.8544968358737352784,-0.6733601363132401245,2.4309282904265299469,-0.5797842703103796946,-4.8278858060797603872
0.09100000000000007,0.853819851844193992,-0.6806065858343653043,2.4303450568517790866,-0.58668534256532600836,-4.8278858060797603755
0.09200000000000007,0.853135625393184257,-0.68784496198568515163,2.4297549147907385428,-0.5936012667802829899,-4.8278858060797603625
0.09300000000000007,0.85244416464595294054,-0.6950751609291715366,2.4291578493198883355,-0.6005321859632844373,-4.8278858060797603525
0.09400000000000007,0.8517454778318376469,-0.70229707832038258854,2.4285538453730374897,-0.6074782424469611609,-4.8278858060797603413
0.09500000000000007,0.85103957328477612085,-0.7095106093024812728,2.427942887742003421,-0.61443957788057160653,-4.827885806079760328
0.09600000000000007,0.85032645944382163704,-0.7167156485002463392,2.4273249610772992982,-0.6214163332220187243,-4.8278858060797603135
0.09700000000000007,0.84960614485366438146,-0.72391209001407597854,2.4267000498888293958,-0.62840864872985331723,-4.827885806079760302
0.09800000000000007,0.8488786381651588334,-0.73109982741398453704,2.4260681385465924515,-0.6354166639552641162,-4.8278858060797602892
0.09900000000000007,0.84814394813585715366,-0.7382787537335926521,2.4254292112813930372,-0.64244051773405484284,-4.8278858060797602758
0.10000000000000007,0.84740208363054858555,-0.745448761464111185,2.4247832521855609612,-0.6494803481786085365,-4.827885806079760263
0.10100000000000008,0.8466530536218048754,-0.75260974254831934145,2.4241302452136787118,-0.65653629266983943604,-4.82788580607976025
0.10200000000000008,0.8458968671905317172,-0.7597615883745373828,2.4234701741833169556,-0.66360848784913272153,-4.8278858060797602376
0.10300000000000008,0.8451335335265262275,-0.7669041897705943446,2.4228030227757781016,-0.67069706961027243766,-4.8278858060797602263
0.10400000000000008,0.8443630619290404546,-0.7740374369977911951,2.422128774536847943,-0.6778021730913579333,-4.8278858060797602133
0.10500000000000008,0.8435854618073509268,-0.78116121974485987694,2.4214474128775553877,-0.6849239326667091714,-4.8278858060797602034
0.10600000000000008,0.8428007426813342432,-0.78827542712191869145,2.4207589210749402913,-0.6920624819387612748,-4.8278858060797601925
0.10700000000000008,0.8420089141820487115,-0.7953799476544244991,2.420063282272829397,-0.6992179537299486934,-4.82788580607976018
0.10800000000000008,0.84120998605232203413,-0.80247466927712222224,2.4193604794826203993,-0.7063904800745793919,-4.8278858060797601687
0.10900000000000008,0.84040396814734504634,-0.8095594793279921529,2.4186504955840741379,-0.7135801922106994757,-4.8278858060797601556
0.11000000000000008,0.83959087043527150804,-0.81663426454219558006,2.4179333133261149296,-0.7207872205719486883,-4.827885806079760144
0.11100000000000008,0.8387707029978239505,-0.8236989110460192686,2.4172089153276390522,-0.72801169477940723136,-4.827885806079760132
0.11200000000000009,0.83794347603090557885,-0.83075330435081933315,2.4164772840783313832,-0.73525374363343437583,-4.827885806079760119
0.11300000000000009,0.8371091998452182308,-0.8377973293469650675,2.4157384019394902042,-0.7425134951054993491,-4.827885806079760106
0.11400000000000009,0.8362678848668863915,-0.84483087029778330414,2.4149922511448601798,-0.74979107633000500376,-4.8278858060797600954
0.11500000000000009,0.83541954163808726313,-0.8518538108335038929,2.4142388138014735143,-0.7570866135961047875,-4.8278858060797600806
0.11600000000000009,0.8345641808176868887,-0.85886603394520690235,2.4134780718904992945,-0.76440023233951355654,-4.8278858060797600676
0.11700000000000009,0.8337018131818823272,-0.8658674219787721642,2.4127100072681010264,-0.77173205713431279005,-4.8278858060797600537
0.11800000000000009,0.83283244962484987773,-0.8728578566288317947,2.4119346016663023675,-0.7790822116847507843,-4.8278858060797600416
0.11900000000000009,0.83195610115939934963,-0.8798372189327263419,2.4111518366938610618,-0.7864508188170384223,-4.82788580607976003
0.12000000000000009,0.8310727789176343742,-0.88680538926446522414,2.4103616938371510813,-0.7938380004711411367,-4.827885806079760017
0.1210000000000001,0.8301824941516187535,-0.89376224732869214,2.4095641544610529759,-0.8012438776925677004,-4.8278858060797600043
0.1220000000000001,0.82928525823404884097,-0.90070767215465614373,2.4087591998098524376,-0.80866857062415650195,-4.8278858060797599956
0.1230000000000001,0.8283810826589319482,-0.9076415420901890989,2.4079468110081470795,-0.8161121984978599806,-4.82788580607975998
0.1240000000000001,0.82746997904227076996,-0.9145637347956902346,2.4071269690617614267,-0.82357487962652791883,-4.8278858060797599683
0.12500000000000008,0.8265519591227538219,-0.92147412723811854745,2.4062996548586701312,-0.83105673139569030775,-4.827885806079759955
0.12600000000000008,0.8256270347624518806,-0.9283725956849938064,2.4054648491699293978,-0.8385578702553405248,-4.8278858060797599436
0.12700000000000009,0.8246952179475204186,-0.935259015698406933,2.40462253265061663,-0.8460784117117195822,-4.8278858060797599323
0.12800000000000009,0.82375652078890802387,-0.9421332621290405463,2.4037726858407782893,-0.85361847031910222724,-4.8278858060797599184
0.1290000000000001,0.8228109555230707933,-0.9489952091102004767,2.402915289166385966,-0.8611781596715856958,-4.8278858060797599054
0.1300000000000001,0.82185853451269268855,-0.9558447300518590695,2.402050322940300663,-0.86875759239488194505,-4.827885806079759892
0.1310000000000001,0.8208992702474118432,-0.96268169763471111316,2.4011777673632452815,-0.87635688013811421037,-4.8278858060797598816
0.1320000000000001,0.8199331753445528064,-0.96950598380424324514,2.4002976025247853109,-0.88397613356561875557,-4.827885806079759869
0.1330000000000001,0.8189602625498647105,-0.9763174597648177031,2.3994098084043177107,-0.8916154623487527092,-4.827885806079759857
0.1340000000000001,0.81798054473826534714,-0.9831159959737713041,2.3985143648720679834,-0.8992749751577089005,-4.827885806079759846
0.1350000000000001,0.81699403491459113665,-0.98990146213553055276,2.3976112516900954298,-0.906954779653338633,-4.8278858060797598317
0.1360000000000001,0.81600074621435297363,-0.99667372719574379283,2.3967004485133065722,-0.9146549824789833578,-4.8278858060797598217
0.1370000000000001,0.8150006919044979318,-1.0034326593354313341,2.395781934890476747,-0.9223756892523162311,-4.82788580607975981
0.1380000000000001,0.81399388538417680866,-1.0101781259651545021,2.3948556902652798474,-0.93011700455719456467,-4.8278858060797597996
0.1390000000000001,0.81298034018551749237,-1.0169099937192045732,2.393921693977326207,-0.93787903193552420373,-4.8278858060797597866
0.1400000000000001,0.81196006997440412807,-1.0236281284498125757,2.392979925263208614,-0.9456618738791368884,-4.827885806079759776
0.1410000000000001,0.8109330885512620645,-1.030332395221380951,2.392030363257556442,-0.95346563182168168275,-4.827885806079759764
0.1420000000000001,0.8098994098518485571,-1.0370226583047380857,2.391072986994097879,-0.9612904061305315784,-4.8278858060797597515
0.1430000000000001,0.80885904794804920506,-1.0436987811714167441,2.3901077754067302443,-0.96913629609870640416,-4.827885806079759739
0.1440000000000001,0.80781201704868009706,-1.0503606264879574398,2.3891347073305983727,-0.97700339993681320163,-4.8278858060797597298
0.1450000000000001,0.8067583315002956417,-1.0570080561102378092,2.3881537615031810508,-0.98489181476500524984,-4.827885806079759718
0.1460000000000001,0.80569800578800205367,-1.06364093107782906,2.3871649165653854804,-0.99280163660496094797,-4.827885806079759706
0.1470000000000001,0.80463105453627647057,-1.0702591116083805839,2.386168151062649757,-1.0007329603718837929,-4.827885806079759696
0.1480000000000001,0.8035574925097916705,-1.0768624570920338419,2.3851634434460533356,-1.008685879866524714,-4.827885806079759685
