t,phi1,v1,phi2,v2,energy
0.0,4.920987248543208459,0.0,0.6899042452602381914,0.0,-11.629602746450650346
0.001,4.9209918137912695953,0.0091304908453526849655,0.689903236821376408,-0.0020168987286918936515,-11.6296027464506503595
0.002,4.9210055095037919305,0.018260918369291315968,0.68990021137876059344,-0.0040340495178412137627,-11.629602746450650374
0.003,4.921028335585796634,0.027391219259177598232,0.68989516855430217435,-0.0060517044222713280783,-11.62960274645065039
0.004,4.9210602918790002816,0.036521330219925589067,0.68988810771786291835,-0.008070115485538023051,-11.629602746450650393
0.005,4.9211013781618367985,0.045651187982779958176,0.6898790279872690181,-0.010089534734297053938,-11.629602746450650409
0.006,4.921151594149488176,0.054780729314096748524,0.6898679282283308065,-0.012110214172673305445,-11.629602746450650413
0.007,4.921210939493923979,0.0639098910241274706,0.68985480705486810273,-0.0141324057766321025456,-11.629602746450650423
0.008,4.9212794137839496324,0.07303860997580736194,0.68983966282874118457,-0.01615636148835321353,-11.6296027464506504375
0.009000000000000001,4.9213570165452635015,0.08216682309354864313,0.68982249365988738564,-0.018182333210608090213,-11.629602746450650447
0.010000000000000002,4.9214437472405227684,0.0912944673720396003,0.689803297406363314,-0.020210572801140893898,-11.629602746450650449
0.011000000000000003,4.921539605269418111,0.100421479885050323064,0.6897820716743926864,-0.022241332067053859816,-11.629602746450650449
0.012000000000000004,4.9216445899687571905,0.109547797794245925145,0.68975881381841977626,-0.024274862759197557551,-11.629602746450650465
0.013000000000000005,4.9217587006125569538,0.118673358358008073703,0.68973352094116846756,-0.026311416566566610215,-11.6296027464506504705
0.014000000000000005,4.9218819364121447688,0.1277980989402656515,0.6897061898937069104,-0.028351245110701441194,-11.629602746450650483
0.015000000000000006,4.9220142965162683875,0.13692195701933537393,0.6896768172755177718,-0.030394599940096623752,-11.629602746450650485
0.016000000000000007,4.9221557800112147626,0.14604487019677318124,0.68964539943457407425,-0.0324417325246164159,-11.629602746450650506
0.017000000000000008,4.9223063859209377113,0.1551667762062372237,0.68961193246742061514,-0.03449289424991807066,-11.629602746450650513
0.01800000000000001,4.92246611320719446,0.16428761292236325512,0.68957641221926095854,-0.036548336411883520106,-11.629602746450650512
0.01900000000000001,4.9226349607696910623,0.17340731836965324779,0.6895388342840499911,-0.038608310211060040457,-11.629602746450650517
0.02000000000000001,4.922812927446236716,0.18252583073137803862,0.6894991940045920323,-0.040673066747110515007,-11.629602746450650527
0.02100000000000001,4.923000012012906988,0.19164308835849481428,0.68945748647264448945,-0.042742857013273921543,-11.6296027464506505356
0.022000000000000013,4.9231962131842159675,0.20075902977858023875,0.68941370652902704704,-0.04481793189083668174,-11.629602746450650539
0.023000000000000013,4.9234015296132973586,0.20987359370478002515,0.6893678487637363786,-0.046898542143615520964,-11.629602746450650536
0.024000000000000014,4.923615959892094532,0.21898671904477574861,0.68931990751606637014,-0.048984938412452498954,-11.629602746450650548
0.025000000000000015,4.9238395025515595493,0.2280983449097696948,0.6892698768747338418,-0.05107737120972288385,-11.62960274645065055
0.026000000000000016,4.9240721560618611863,0.23720841062348853445,0.68921775067800975526,-0.05317609091385655525,-11.629602746450650568
0.027000000000000017,4.9243139188326019657,0.24631685573120661038,0.68916352251385589226,-0.055281347763873635205,-11.629602746450650578
0.028000000000000018,4.924564789213044226,0.25542362000878961992,0.68910718572006699086,-0.057393391853935060263,-11.629602746450650582
0.02900000000000002,4.924824765492345244,0.26452864347175947095,0.68904873338441832215,-0.05951247312790882212,-11.629602746450650585
0.03000000000000002,4.9250938458998014314,0.27363186638438108663,0.6889881583448186939,-0.0616388413739526197,-11.629602746450650593
0.03100000000000002,4.9253720286051016304,0.28273322926877192797,0.6889254531894688621,-0.06377274621911368107,-11.629602746450650597
0.03200000000000002,4.9256593117185895323,0.29183267291403500087,0.688860610257025334,-0.065914437123946529924,-11.62960274645065061
0.03300000000000002,4.9259556932915352376,0.30093013838541610744,0.6887936216367695443,-0.068064163377149488196,-11.6296027464506506206
0.03400000000000002,4.9262611713164159892,0.31002556703348609887,0.6887244791687823851,-0.07022217409022072361,-11.629602746450650624
0.035000000000000024,4.9265757437272061,0.31911890050334888074,0.68865317444412406926,-0.072388718192134668874,-11.629602746450650633
0.036000000000000025,4.926899408399676099,0.32821008074387591726,0.6885796988050193074,-0.07456404442403965785,-11.6296027464506506535
0.037000000000000026,4.9272321631517011268,0.3372990500169679762,0.68850404334504777587,-0.07674840133397764255,-11.629602746450650654
0.03800000000000003,4.9275740057435786124,0.34638575090684485032,0.6884261989093398537,-0.07894203727162687481,-11.629602746450650665
0.03900000000000003,4.927924933878355243,0.3554701263293637867,0.68834615609477760545,-0.08114520038306845618,-11.629602746450650674
0.04000000000000003,4.928284945202163277,0.36455211954136734938,0.6882639052502009842,-0.08335813860557768004,-11.629602746450650688
0.04100000000000003,4.928654037304566212,0.37363167415006143582,0.68817943647661923134,-0.08558109966244111144,-11.629602746450650697
0.04200000000000003,4.9290322077189138547,0.38270873412242416148,0.6880927396274274456,-0.0878143310578003711,-11.629602746450650707
0.04300000000000003,4.929419453922706807,0.39178324379464632204,0.68800380430862829485,-0.0900580800715236127,-11.62960274645065071
0.04400000000000003,4.9298157733379704137,0.40085514788160413654,0.6879126198790588415,-0.09231259375410570469,-11.629602746450650721
0.04500000000000003,4.9302211633316381984,0.4099243914863649689,0.68781917545062245335,-0.09457811892159815127,-11.629602746450650734
0.046000000000000034,4.93063562121594482,0.41899092010972672023,0.68772345988852576974,-0.096854902150569810466,-11.629602746450650744
0.047000000000000035,4.9310591442488285884,0.4280546796597915774,0.6876254618115206901,-0.099143189773099491666,-11.629602746450650751
0.048000000000000036,4.9314917296343435704,0.4371156164615747984,0.68752516959215135417,-0.10144322787180153905,-11.629602746450650752
0.04900000000000004,4.931933374523081322,0.4461736772666492084,0.6874225713570060794,-0.103755262274885533006,-11.629602746450650758
0.05000000000000004,4.932384076012602283,0.45522880926282607492,0.6873176549869742215,-0.10607953855125126642,-11.629602746450650781
0.05100000000000004,4.9328438311478768692,0.46428096008387302382,0.6872104081175079211,-0.10841630200562017942,-11.62960274645065079
0.05200000000000004,4.9333126369217363077,0.47333007781926965285,0.6871008181388887014,-0.11076579767370446196,-11.629602746450650795
0.05300000000000004,4.9337904902753332397,0.48237611102400149214,0.68698887219649887597,-0.11312827031741506116,-11.629602746450650803
0.05400000000000004,4.9342773880986121405,0.49141900872839295585,0.68687455719109773,-0.11550396442010985715,-11.629602746450650812
0.05500000000000004,4.934773327230789591,0.50045872044797992304,0.6867578597791024317,-0.11789312418188329934,-11.6296027464506508235
0.05600000000000004,4.9352783044608444416,0.5094951961934225789,0.686638766372873633,-0.120295993514898823124,-11.629602746450650834
0.057000000000000044,4.9357923165280179123,0.51852838648045914273,0.68651726314100571647,-0.1227128160387653958,-11.629602746450650846
0.058000000000000045,4.9363153601223236622,0.5275582423399011019,0.68639333600862164215,-0.12514383507595956968,-11.6296027464506508626
0.059000000000000045,4.9368474318850678784,0.53658471532767056496,0.6862669706576723497,-0.1275892936472944498,-11.629602746450650866
0.060000000000000046,4.9373885284093794253,0.54560775753488034305,0.68613815252724066744,-0.13004943446743701361,-11.629602746450650873
0.06100000000000005,4.937938646240750091,0.55462732159795735855,0.6860068668138496785,-0.13252449994047525089,-11.629602746450650888
0.06200000000000005,4.938497781877584981,0.56364336070880998,0.68587309847177549573,-0.13501473215553662209,-11.629602746450650892
0.06300000000000004,4.939065931771763105,0.57265582862503986973,0.6857368322133643905,-0.13752037288245936535,-11.629602746450650903
0.06400000000000004,4.9396430923292081916,0.58166467968019893093,0.6855980525093542238,-0.14004166356751821375,-11.629602746450650922
0.06500000000000004,4.9402292599104697876,0.5906698687940919311,0.6854567435892001236,-0.14257884532920611615,-11.6296027464506509476
0.06600000000000004,4.9408244308313146805,0.5996713514831253751,0.68531288944140435204,-0.14513215895407358786,-11.629602746450650968
0.06700000000000005,4.9414286013633286947,0.60866908387070319425,0.6851664738138503031,-0.14770184489262734965,-11.6296027464506509805
0.06800000000000005,4.9420417677345289077,0.61766302269766981426,0.6850174802141405723,-0.15028814325528994722,-11.6296027464506509935
0.06900000000000005,4.9426639261299863304,0.62665312533280115726,0.68486589190993903456,-0.15289129380842207655,-11.6296027464506510135
0.07000000000000005,4.9432950726924591036,0.63563934978334413005,0.6847116919293168683,-0.15551153597040937448,-11.629602746450651017
0.07100000000000005,4.9439352035230362628,0.64462165470560514374,0.6845548630611024594,-0.15814910880781546803,-11.629602746450651035
0.07200000000000005,4.9445843146817921076,0.65359999941558820656,0.6843953878552351187,-0.16080425103160311095,-11.629602746450651047
0.07300000000000005,4.945242402188451243,0.66257434389968312564,0.6842332486231225431,-0.16347720099342527027,-11.629602746450651057
0.07400000000000005,4.9459094620230643295,0.67154464882540435,0.6840684274380019498,-0.16616819668198806189,-11.629602746450651071
0.07500000000000005,4.9465854901266945974,0.6805108755521809813,0.68390090613530481124,-0.16887747571948746869,-11.629602746450651095
0.07600000000000005,4.947270482402115178,0.6894729861421984756,0.68373066631302511516,-0.17160527535812181161,-11.629602746450651112
0.07700000000000005,4.947964434714517304,0.698430943371292555,0.68355768933209107383,-0.17435183247668197978,-11.62960274645065113
0.07800000000000006,4.948667342892229428,0.7073847107398958442,0.68338195631674020355,-0.1771173835772214629,-11.629602746450651147
0.07900000000000006,4.949379202727447315,0.71633425248403774185,0.68320344815489769224,-0.1799021647818082652,-11.629602746450651168
0.08000000000000006,4.9501000099769751593,0.72527953358639803724,0.6830221454985579746,-0.18270641182936081848,-11.629602746450651189
0.08100000000000006,4.9508297603629777875,0.7342205197874147736,0.68283802876416942797,-0.18553036007257004836,-11.629602746450651191
0.08200000000000006,4.9515684495737439935,0.74315717759644686163,0.6826510781330221017,-0.18837424447490978603,-11.629602746450651205
0.08300000000000006,4.95231607326446106,0.7520894743029919419,0.6824612735516383918,-0.19123829960773775616,-11.629602746450651215
0.08400000000000006,4.9530726270580005344,0.7610173779879599912,0.6822685947321665677,-0.19412275964748940918,-11.629602746450651241
0.08500000000000006,4.9538381065457152952,0.7699408575350031684,0.6820730211527770581,-0.19702785837296690566,-11.629602746450651261
0.08600000000000006,4.9546125072882479887,0.7788598826419023918,0.68187453205806139927,-0.19995382916272559874,-11.629602746450651282
0.08700000000000006,4.9553958248163508717,0.7877744238320111379,0.6816731064594337472,-0.20290090499256040006,-11.6296027464506513075
0.08800000000000006,4.9561880546317171295,0.79668445246575695187,0.6814687231355348521,-0.20586931843309445388,-11.629602746450651318
0.08900000000000007,4.956989192207823728,0.80558994075220115804,0.68126136063263839247,-0.20885930164747258393,-11.62960274645065133
0.09000000000000007,4.9577992329907858496,0.8144908617606572585,0.6810509972650595621,-0.21187108638916201712,-11.629602746450651352
0.09100000000000007,4.958618172400222978,0.8233871894323685068,0.68083761111556580166,-0.21490490399986292888,-11.6296027464506513726
0.09200000000000007,4.9594460058301366944,0.83227889859224514594,0.68062118003578956347,-0.21796098540753139461,-11.629602746450651392
0.09300000000000007,4.9602827286498002357,0.84116596496066179794,0.6804016816466429966,-0.22103956112451737292,-11.629602746450651406
0.09400000000000007,4.9611283362046598847,0.8500483651653154946,0.6801790933387344352,-0.22414086124582038697,-11.6296027464506514185
0.09500000000000007,4.9619828238172482464,0.85892607675314484113,0.6799533922727865706,-0.22726511544746561127,-11.6296027464506514315
0.09600000000000007,4.962846186788109474,0.8677990782023108032,0.6797245553800561868,-0.23041255298500311237,-11.629602746450651446
0.09700000000000007,4.963718420396736509,0.876667348934239614,0.67949255936275533335,-0.23358340269213303381,-11.629602746450651471
0.09800000000000007,4.9645995199025203916,0.8855308693257282976,0.67925738069447380926,-0.23677789297945955707,-11.6296027464506514845
0.09900000000000007,4.9654894805457117134,0.8943896207211133095,0.6790189956206028272,-0.23999625183337651217,-11.6296027464506515035
0.10000000000000007,4.9663882975483942656,0.90324358544450279783,0.67877738015875972526,-0.24323870681508755383,-11.629602746450651524
0.10100000000000008,4.9672959661154709545,0.91209274681207299463,0.6785325100992135896,-0.24650548505976386115,-11.629602746450651546
0.10200000000000008,4.968212481435662044,0.9209370891444292489,0.6782843610053116499,-0.24979681327584236176,-11.6296027464506515625
0.10300000000000008,4.969137838682515793,0.92977659777903222025,0.67803290821390630453,-0.25311291774446752334,-11.629602746450651579
0.10400000000000008,4.9700720330154315517,0.93861125908268975556,0.6777781268357826315,-0.25645402431907979876,-11.629602746450651594
0.10500000000000008,4.9710150595806953805,0.94744106046411498076,0.6775199917560862354,-0.2598203584251538546,-11.629602746450651619
0.10600000000000008,4.9719669135125282625,0.95626599038655114236,0.6772584776347512814,-0.26321214506008975433,-11.629602746450651629
0.10700000000000008,4.9729275899341469766,0.96508603838046374434,0.67699355890692855824,-0.26662960879326031352,-11.629602746450651646
0.10800000000000008,4.973897083958837691,0.97390119505630053196,0.67672520978341341635,-0.2700729737662178851,-11.629602746450651665
0.10900000000000008,4.974875390691042355,0.9827114521173198838,0.6764534042510734169,-0.27354246369306387925,-11.629602746450651685
0.11000000000000008,4.975862505227457953,0.9915168023724881822,0.6761781160732755289,-0.27703830186098436395,-11.629602746450651708
0.11100000000000008,4.9768584226581486893,1.0003172397494467416,0.67589931879031270626,-0.28056071113095513859,-11.6296027464506517325
0.11200000000000009,4.977863138067671176,1.0091127593075488871,0.6756169857198296738,-0.28410991393861971521,-11.629602746450651748
0.11300000000000009,4.978876646536212695,1.017903357250967783,0.6753310899572477472,-0.2876861322953436886,-11.629602746450651775
0.11400000000000009,4.979898943140742597,1.0266890309418756278,0.6750416043761885086,-0.29128958778944901914,-11.629602746450651802
0.11500000000000009,4.9809300229561769236,1.0354697789136948412,0.6747485016288961571,-0.29492050158763179836,-11.629602746450651819
0.11600000000000009,4.9819698810565563136,1.0442456008844218838,0.67445175414665834785,-0.2985790944365671119,-11.629602746450651837
0.11700000000000009,4.983018512516237268,1.053016497770024363,0.6741513341402253313,-0.30226558666470465959,-11.629602746450651865
0.11800000000000009,4.9840759124110968494,1.0617824716979120975,0.6738472136002271998,-0.30598019818425883768,-11.629602746450651894
0.11900000000000009,4.9851420758197508938,1.0705435260204828224,0.67353936429758904563,-0.30972314849339703418,-11.629602746450651923
0.12000000000000009,4.9862169978247857997,1.079299665328743239,0.6732277577839438296,-0.31349465667862993343,-11.629602746450651945
0.1210000000000001,4.9873006735140039828,1.0880508954660061283,0.6729123653920427574,-0.3172949414174076726,-11.6296027464506519745
0.1220000000000001,4.9883930979816830586,1.0967972235416642661,0.67259315823616295436,-0.32112422098092573846,-11.629602746450652003
0.1230000000000001,4.9894942663298488443,1.1055386579450418958,0.6722701072125122285,-0.3249827132371445391,-11.62960274645065203
0.1240000000000001,4.990604173669562248,1.1142752083593245375,0.6719431829996307054,-0.3288706356540266319,-11.629602746450652049
0.12500000000000008,4.9917228151222201274,1.1230068857755679295,0.6716123560587891151,-0.33278820530299563595,-11.629602746450652072
0.12600000000000008,4.9928501858208701987,1.1317337025067869226,0.67127759663438350764,-0.33673563886262090368,-11.629602746450652095
0.12700000000000009,4.9939862809115400724,1.140455672202125172,0.67093887475432616965,-0.34071315262253207374,-11.629602746450652118
0.12800000000000009,4.9951310955545805024,1.1491728098611064892,0.6705961602304325091,-0.3447209624875676745,-11.629602746450652145
0.1290000000000001,4.9962846249260229247,1.1578851318479687482,0.6702494226588036733,-0.34875928398216199557,-11.629602746450652172
0.1300000000000001,4.9974468642189513747,1.1665926559060812616,0.6698986314202046585,-0.35282833225497449138,-11.629602746450652202
0.1310000000000001,4.998617808644888861,1.1752954011724465711,0.66954375568043766767,-0.35692832208376603072,-11.629602746450652234
0.1320000000000001,4.999797453435198286,1.1839933881922876229,0.6691847643907104663,-0.36105946788052635293,-11.629602746450652258
0.1330000000000001,5.000985793842497996,1.1926866389337213293,0.66882162628799948355,-0.36522198369685714037,-11.629602746450652286
0.1340000000000001,5.002182825142092047,1.2013751768025195468,0.66845430989540740067,-0.3694160832296151664,-11.629602746450652312
0.1350000000000001,5.00338854263341528,1.210059026656958531,0.66808278352251496395,-0.37364197982682002667,-11.629602746450652347
0.1360000000000001,5.0046029416414932823,1.2187382148227579638,0.66770701526572675654,-0.37789988649383101084,-11.629602746450652375
0.1370000000000001,5.0058260175184173426,1.2274127691081106782,0.6673269730086106562,-0.38219001589979772183,-11.629602746450652394
0.1380000000000001,5.007057765644834477,1.236082718818804243,0.6669426244222307036,-0.3865125803843890999,-11.629602746450652422
0.1390000000000001,5.008298181431452621,1.244748094773435604,0.6665539369654731014,-0.39086779196480555965,-11.629602746450652456
0.1400000000000001,5.0095472603205610856,1.253408929318720016,0.6661608778853650563,-0.39525586234307899712,-11.629602746450652486
0.1410000000000001,5.0108049977875663717,1.2620652563448955375,0.6657634142173861762,-0.39967700291366547807,-11.629602746450652514
0.1420000000000001,5.0120713893425434347,1.2707171113012243999,0.6653615127857721257,-0.40413142477133546723,-11.629602746450652541
0.1430000000000001,5.0133464305318024994,1.2793645312115926017,0.6649551402038102408,-0.40861933871936651234,-11.62960274645065257
0.1440000000000001,5.0146301169394715265,1.2880075546902091237,0.66454426287412679785,-0.41314095527804334804,-11.6296027464506526025
0.1450000000000001,5.0159224441890944255,1.2966462219574062018,0.664128846988965626,-0.41769648469347043747,-11.629602746450652641
0.1460000000000001,5.0172234079452451214,1.3052805748555421375,0.66370885853045774914,-0.42228613694670202365,-11.629602746450652669
0.1470000000000001,5.0185330039151575766,1.3139106568650081754,0.6632842632708817371,-0.42691012176319481465,-11.6296027464506527005
0.1480000000000001,5.0198512278503718705,1.3225365131203410217,0.6628550267729144404,-0.43156864862258848304,-11.629602746450652742
