t,phi1,v1,phi2,v2,energy
0.0,0.8091356791228455636,0.0,2.9289783408154996813,0.0,-3.9511323997210467075
0.001,0.80913125717786189833,-0.008843886489525562133,2.9289749980748227775,-0.0066854973578326238755,-3.951132399721046698
0.002,0.80911799136377809765,-0.017687731244059142288,2.9289649697567683275,-0.0133711867624678939026,-3.951132399721046687
0.003,0.80909588174319934745,-0.02653149252141426962,2.928948255573269148,-0.020057260252652550628,-3.9511323997210466778
0.004,0.80906492842047961526,-0.03537512856501504113,2.9289248550442266942,-0.026743909851020783731,-3.951132399721046667
0.005,0.80902513154173963736,-0.04421859759670026963,2.928894767497531201,-0.033431327556036107675,-3.951132399721046656
0.006,0.80897649129489210257,-0.053061857809526269054,2.9288579920690898826,-0.04011970533393101902,-3.9511323997210466466
0.007,0.80891900790967403436,-0.06190486736056782354,2.9288145277028631971,-0.04680923511064369657,-3.9511323997210466364
0.008,0.80885268165768637244,-0.070747584363716887545,2.9287643731509091717,-0.05350010876375100605,-3.9511323997210466264
0.009000000000000001,0.80877751285244075765,-0.07958996688247856492,2.9287075269734358005,-0.060192518114397071688,-3.951132399721046616
0.010000000000000002,0.8086935018494135219,-0.08843197292276391586,2.9286439875388615148,-0.066886654919216677774,-3.9511323997210466054
0.011000000000000003,0.80860064904610688745,-0.09727356042567914187,2.9285737530238837333,-0.073582710862252764344,-3.9511323997210465965
0.012000000000000004,0.80849895488211737885,-0.106114687260310699956,2.9284968214135554984,-0.08028087754686728206,-3.9511323997210465858
0.013000000000000005,0.808388419839211452,-0.114955311216505899,2.9284131905013702029,-0.086981346487644672574,-3.9511323997210465763
0.014000000000000005,0.8082690444414083448,-0.1237953899976485326,2.928322857889354422,-0.093684309102287242066,-3.9511323997210465663
0.015000000000000006,0.8081408292550701554,-0.13263488121342910465,2.928225820988168849,-0.10038995670350169699,-3.951132399721046556
0.016000000000000007,0.80800377488899915274,-0.14147374237260920575,2.9281220770172173527,-0.10709848049087611267,-3.9511323997210465457
0.017000000000000008,0.8078578819945423257,-0.15031193087577960058,2.9280116230047641616,-0.113810071542746607176,-3.9511323997210465353
0.01800000000000001,0.80770315126570317783,-0.15914940400811158885,2.9278944557880591873,-0.12052492080805299474,-3.9511323997210465251
0.01900000000000001,0.8075395834392607742,-0.16798611893210120458,2.927770572013471497,-0.1272432190981826949,-3.9511323997210465143
0.02000000000000001,0.8073671792948960471,-0.17682203268030582134,2.9276399681366309501,-0.1339651570788021758,-3.951132399721046505
0.02100000000000001,0.8071859396553253708,-0.18565710214807273337,2.9275026404225780086,-0.14069092526167521214,-3.9511323997210464946
0.022000000000000013,0.8069958653864414099,-0.19449128408625928621,2.9273585849459217358,-0.14742071399646724114,-3.9511323997210464844
0.023000000000000013,0.80679695739746125317,-0.20332453509394413241,2.927207797591006,-0.1541547134625351016,-3.9511323997210464748
0.024000000000000014,0.80658921664108184073,-0.21215681161112919237,2.9270502740520838924,-0.1608931136607014448,-3.951132399721046464
0.025000000000000015,0.8063726441136426935,-0.22098806991143190253,2.9268860098335003834,-0.167636104405013108,-3.9511323997210464525
0.026000000000000016,0.80614724085529595576,-0.22981826609476733784,2.9267150002498832232,-0.17438387531448274469,-3.9511323997210464432
0.027000000000000017,0.8059130079501837613,-0.2386473560800197982,2.9265372404263421148,-0.1811366158048130088,-3.9511323997210464334
0.028000000000000018,0.8056699465266229323,-0.24747529559770345317,2.9263527252986761688,-0.18789451508010259308,-3.9511323997210464223
0.02900000000000002,0.8054180577572970243,-0.25630204018261164276,2.9261614496135896612,-0.19465776212453342552,-3.9511323997210464122
0.03000000000000002,0.80515734285945572696,-0.2651275451664544367,2.9259634079289161162,-0.20142654569403833119,-3.9511323997210464028
0.03100000000000002,0.8048878030951216339,-0.27395176567048405876,2.9257585946138507287,-0.20820105430794847031,-3.9511323997210463922
0.03200000000000002,0.8046094397713043927,-0.28277465659810778755,2.9255470038491911515,-0.21498147624061986747,-3.951132399721046382
0.03300000000000002,0.804322254240222249,-0.29159617262748794908,2.925328629627586666,-0.22176799951303835066,-3.951132399721046372
0.03400000000000002,0.8040262478995309969,-0.3004162682041286226,2.9251034657537957587,-0.22856081188440222312,-3.9511323997210463616
0.035000000000000024,0.8037214221925603496,-0.3092348975334486852,2.924871505844952128,-0.23536010084368199513,-3.951132399721046351
0.036000000000000025,0.8034077786085577437,-0.3180520145733408261,2.9246327433308391406,-0.24216605360115650709,-3.9511323997210463393
0.037000000000000026,0.803085318682939592,-0.326867573026716167,2.9243871714541727666,-0.2489788570799247805,-3.9511323997210463295
0.03800000000000003,0.8027540439975499991,-0.335681526334034131,2.9241347832708930127,-0.25579869790739293708,-3.9511323997210463172
0.03900000000000003,0.8024139561809269541,-0.34449382766581720675,2.9238755716504638824,-0.2626257624067355324,-3.9511323997210463057
0.04000000000000003,0.8020650569085760165,-0.35330442991515026245,2.9236095292761818884,-0.26946023658833065408,-3.951132399721046295
0.04100000000000003,0.80170734790325151137,-0.36211328569016406847,2.9233366486454931419,-0.27630230614116814143,-3.9511323997210462849
0.04200000000000003,0.8013408309352452476,-0.37092034730650269466,2.923056922070319049,-0.28315215642423028662,-3.951132399721046275
0.04300000000000003,0.8009655078226827784,-0.37972556677977445464,2.9227703416773906397,-0.29000997245784438552,-3.9511323997210462636
0.04400000000000003,0.800581380431827218,-0.3885288958179860755,2.9224768994085915566,-0.29687593891500650947,-3.9511323997210462534
0.04500000000000003,0.8001884506773906337,-0.39733028581395977858,2.9221765870213097394,-0.3037502401126758771,-3.9511323997210462415
0.046000000000000034,0.79978672052285302885,-0.40612968783773296363,2.9218693960887978246,-0.31063306000303921007,-3.9511323997210462307
0.047000000000000035,0.7993761919807889352,-0.41492705262894019562,2.9215553180005423004,-0.31752458216474446317,-3.951132399721046218
0.048000000000000036,0.7989568671132016322,-0.42372233058917720084,2.92123434396264144,-0.324424989794103326,-3.9511323997210462066
0.04900000000000004,0.79852874803186501174,-0.4325154717743465863,2.920906464998192051,-0.33133446569626189858,-3.9511323997210461947
0.05000000000000004,0.79809183689867310566,-0.44130642588698500408,2.9205716719476850682,-0.33825319227633895186,-3.9511323997210461838
0.05100000000000004,0.79764613592599729636,-0.45009514226857149,2.9202299554694100268,-0.34518135153053118892,-3.9511323997210461723
0.05200000000000004,0.79719164737705122784,-0.45888156989181671334,2.9198813060398684446,-0.3521191250371849313,-3.9511323997210461606
0.05300000000000004,0.79672837356626343786,-0.46766565735293288378,2.9195257139541961513,-0.359066693947833661,-3.9511323997210461491
0.05400000000000004,0.7962563168596577293,-0.47644735286388406825,2.9191631693265945966,-0.36602423897820085617,-3.9511323997210461383
0.05500000000000004,0.7957754796752413016,-0.48522660424461668026,2.9187936620907711743,-0.37299194039916756734,-3.9511323997210461268
0.05600000000000004,0.79528586448340066135,-0.49400335891526991222,2.9184171820003885953,-0.37996997802770418628,-3.9511323997210461155
0.057000000000000044,0.79478747380730533284,-0.50277756388836588973,2.9180337186295233465,-0.38695853121776586987,-3.9511323997210461036
0.058000000000000045,0.79428031022331938845,-0.5115491657609793367,2.9176432613731332756,-0.39395777885115108809,-3.951132399721046093
0.059000000000000045,0.79376437636142082015,-0.52031811070688654817,2.917245799447534333,-0.40096789932832277382,-3.9511323997210460813
0.060000000000000046,0.7932396749056287717,-0.5290843444686934785,2.9168413218908865125,-0.40798907055919156087,-3.95113239972104607
0.06100000000000005,0.79270620859443865407,-0.53784781234994275944,2.916429817563689028,-0.41502146995386060457,-3.9511323997210460572
0.06200000000000005,0.79216398022126516384,-0.54660845920719947603,2.9160112751492847651,-0.42206527441333148876,-3.9511323997210460466
0.06300000000000004,0.79161299263489322704,-0.5553662294421155343,2.915585683154374046,-0.4291206603201707321,-3.9511323997210460342
0.06400000000000004,0.7910532487399368889,-0.5641210669934724675,2.9151530299095377477,-0.4361878035291364148,-3.9511323997210460214
0.06500000000000004,0.7904847514973061719,-0.5728729153292025352,2.9147133035697698135,-0.4432668793577644576,-3.9511323997210460106
0.06600000000000004,0.78990750392468192374,-0.58162171743838798416,2.9142664921150192002,-0.45035806257691409326,-3.9511323997210459984
0.06700000000000005,0.78932150909699867666,-0.5903674158232383443,2.9138125833507412983,-0.4574615274012720817,-3.9511323997210459867
0.06800000000000005,0.78872677014693554076,-0.5991099524910456502,2.9133515649084588703,-0.46457744747981522874,-3.9511323997210459752
0.06900000000000005,0.7881232902654151533,-0.6078492689461174839,2.9128834242463325463,-0.4717059958862307795,-3.9511323997210459633
0.07000000000000005,0.7875110727021107057,-0.6165853061816877503,2.9124081486497409214,-0.4788473451092942675,-3.9511323997210459514
0.07100000000000005,0.78689012076596107114,-0.6253180046718051041,2.9119257252318702964,-0.4860016670432044115,-3.9511323997210459384
0.07200000000000005,0.7862604378256940551,-0.6340473043631989616,2.911436140934314105,-0.49316913297787466156,-3.9511323997210459256
0.07300000000000005,0.7856220273103577907,-0.64277314466712303997,2.9109393825276820716,-0.5003499135891810093,-3.9511323997210459132
0.07400000000000005,0.7849748927098603023,-0.6514954644511763794,2.9104354366122191441,-0.50754417892916568587,-3.9511323997210459017
0.07500000000000005,0.78431903757551725895,-0.6602142020311018159,2.9099242896184342427,-0.51475209841619638454,-3.9511323997210458885
0.07600000000000005,0.78365446552060794065,-0.66892929516256188343,2.9094059278077388745,-0.5219738408250806548,-3.951132399721045874
0.07700000000000005,0.78298118022093944005,-0.6776406810328921373,2.9088803372730956546,-0.52920957427713512906,-3.9511323997210458616
0.07800000000000006,0.7822991854154191226,-0.686348296252831903,2.9083475039396767825,-0.5364594662302092519,-3.9511323997210458503
0.07900000000000006,0.78160848490663536645,-0.695052076848232467,2.9078074135655325157,-0.5437236834686631979,-3.9511323997210458364
0.08000000000000006,0.7809090825614466056,-0.70375195825174273955,2.9072600517422696892,-0.55100239209329967226,-3.9511323997210458234
0.08100000000000006,0.78020098231157869944,-0.71244787529447243146,2.9067054038957403266,-0.5582957575112493053,-3.9511323997210458098
0.08200000000000006,0.779484188154230649,-0.72113976219763280083,2.9061434552867403884,-0.5656039444258093623,-3.9511323997210457963
0.08300000000000006,0.77875870415268868494,-0.7298275525641550392,2.9055741910117187064,-0.5729271168262355041,-3.9511323997210457835
0.08400000000000006,0.7780245344369487474,-0.7385111793702863795,2.9049975960034961488,-0.580265437977486347,-3.9511323997210457694
0.08500000000000006,0.77728168320434738107,-0.7471905749571640219,2.9044136550319950639,-0.58761907040992058496,-3.9511323997210457562
0.08600000000000006,0.77653015472020106775,-0.755865671022366989,2.9038223527049790529,-0.59498817590894644957,-3.951132399721045743
0.08700000000000006,0.77576995331845401756,-0.76453639861144603277,2.9032236734688031139,-0.6023729155046232991,-3.9511323997210457287
0.08800000000000006,0.7750010834023344414,-0.77320268810943173387,2.9026176016091742105,-0.60977344946121514035,-3.951132399721045716
0.08900000000000007,0.774223549445019326,-0.78186446923232094506,2.9020041212519223125,-0.6171899372666959033,-3.951132399721045703
0.09000000000000007,0.7734373559903077336,-0.7905216710185417468,2.90138321636378195,-0.6246225376222063019,-3.9511323997210456899
0.09100000000000007,0.772642507653302647,-0.7991742218203970978,2.9007548707531843409,-0.6320714084314621309,-3.9511323997210456764
0.09200000000000007,0.7718390091211013816,-0.80782204929548737674,2.9001190680710601313,-0.6395367067901138622,-3.9511323997210456643
0.09300000000000007,0.77102686515349458553,-0.8164650803981120296,2.8994757918116528007,-0.6470185889750574212,-3.9511323997210456497
0.09400000000000007,0.7702060805836738483,-0.8251032413706505486,2.898825025313342783,-0.6545172104336960385,-3.951132399721045637
0.09500000000000007,0.76937666031894793895,-0.833736457734923027,2.898166751759482347,-0.6620327257731530884,-3.9511323997210456242
0.09600000000000007,0.76853860934146769337,-0.84236465428353054857,2.8975009541792412918,-0.6695652887494358425,-3.9511323997210456103
0.09700000000000007,0.76769193270895957145,-0.850987755071175687,2.8968276154484635004,-0.6771150522565500822,-3.9511323997210455962
0.09800000000000007,0.7668366355554679038,-0.859605683405963405,2.8961467182905344048,-0.68468216831556553167,-3.9511323997210455814
0.09900000000000007,0.7659727230921058464,-0.86821836184068266145,2.89545824527725941,-0.6922667880636320885,-3.9511323997210455667
0.10000000000000007,0.7651002006078150644,-0.8768257121640690492,2.894762178829753326,-0.6998690617429468489,-3.9511323997210455524
0.10100000000000008,0.76421907347013416135,-0.8854276553920488039,2.8940585012193408572,-0.70748913868967193804,-3.951132399721045538
0.10200000000000008,0.7633293471259758746,-0.8940241117589645399,2.8933471945684682,-0.7151271673228031779,-3.9511323997210455233
0.10300000000000008,0.76243102710241305323,-0.9026150007087830878,2.8926282408516257945,-0.7227832951329896403,-3.9511323997210455097
0.10400000000000008,0.7615241190074734375,-0.9112002408862858233,2.8919016218962822816,-0.7304576686713041517,-3.9511323997210454947
0.10500000000000008,0.76060862853094325604,-0.91977975012824189584,2.8911673193838297153,-0.73815043353796483546,-3.9511323997210454793
0.10600000000000008,0.7596845614451796586,-0.92835344545456478175,2.8904253148505400757,-0.74586173437100779503,-3.9511323997210454648
0.10700000000000008,0.7587519236059320001,-0.93692124305945260516,2.889675589688533137,-0.7535917148349110618,-3.9511323997210454492
0.10800000000000008,0.75781072095317199245,-0.9454830583025126873,2.8889181251467557314,-0.76134051760916994896,-3.951132399721045435
0.10900000000000008,0.75686095951193273955,-0.9540388056998708021,2.888152902331972467,-0.7691082843768239737,-3.95113239972104542
0.11000000000000008,0.75590264539315667034,-0.96258839891526563524,2.8873799022097679375,-0.77689515581293552913,-3.9511323997210454056
0.11100000000000008,0.75493578479455238463,-0.97113175075112896043,2.8865991056055604824,-0.7847012715730205085,-3.9511323997210453895
0.11200000000000009,0.75396038400146042554,-0.9796687731396520683,2.885810493205627536,-0.79252677028143110155,-3.9511323997210453763
0.11300000000000009,0.7529764493877279927,-0.9881993771338389963,2.8850140455581426216,-0.80037178951969100755,-3.9511323997210453611
0.11400000000000009,0.7519839874165926077,-0.9967234728985471335,2.8842097430742240304,-0.80823646581478332773,-3.9511323997210453457
0.11500000000000009,0.75098300464157474564,-1.0052409697015157876,2.8833975660289952387,-0.8161209346273914212,-3.9511323997210453319
0.11600000000000009,0.74997350770737944393,-1.0137517759043833225,2.8825774945626571068,-0.8240253303400930299,-3.9511323997210453165
0.11700000000000009,0.74895550335080689886,-1.0222557989536934967,2.8817495086815719065,-0.8319497862455080021,-3.9511323997210453021
0.11800000000000009,0.74792899840167206154,-1.0307529453718916449,2.8809135882593592244,-0.8398944345343999607,-3.9511323997210452876
0.11900000000000009,0.7468939997837332421,-1.0392431207483113748,2.880069713038003786,-0.8478594062837322902,-3.951132399721045272
0.12000000000000009,0.74585051451562973176,-1.0477262297301524605,2.8792178626289752475,-0.85584483144467883505,-3.9511323997210452564
0.1210000000000001,0.74479854971182845116,-1.0562021760134506424,2.8783580165143599983,-0.86385083883058972763,-3.9511323997210452412
0.1220000000000001,0.7437381125835796326,-1.0646708623340400572,2.8774901540480050208,-0.8718775561049127825,-3.9511323997210452267
0.1230000000000001,0.7426692104398815432,-1.073132190458509046,2.8766142544566738494,-0.8799251097690709232,-3.95113239972104521
0.1240000000000001,0.74159185068845425516,-1.0815860611751501054,2.8757302968412146757,-0.88799362515029612496,-3.9511323997210451957
0.12500000000000008,0.74050604083672246907,-1.09003237428490477,2.8748382601777406403,-0.8960832263894203856,-3.9511323997210451814
0.12600000000000008,0.7394117884928073939,-1.0984710285923042339,2.8739381233188223547,-0.9041940364286242574,-3.9511323997210451662
0.12700000000000009,0.7383091013665276888,-1.1069019218964065386,2.873029864994692696,-0.9123261769991434987,-3.9511323997210451517
0.12800000000000009,0.73719798727040946847,-1.1153249509817311773,2.8721134638144639156,-0.9204797686089344285,-3.951132399721045138
0.1290000000000001,0.7360784541207053755,-1.1237400116091919858,2.8711888982673571032,-0.9286549305302985913,-3.9511323997210451215
0.1300000000000001,0.7349505099384227195,-1.1321469985070292117,2.8702561467239440457,-0.9368517807874673658,-3.9511323997210451055
0.1310000000000001,0.733814162850360685,-1.1405458053617416738,2.8693151874374015215,-0.94507043614414717455,-3.9511323997210450907
0.1320000000000001,0.7326694210901566065,-1.1489363248090199473,2.8683659985447780693,-0.9533110120910259798,-3.951132399721045074
0.1330000000000001,0.73151629299934130897,-1.1573184484246815306,2.8674085580682732684,-0.96157362283324177433,-3.9511323997210450589
0.1340000000000001,0.7303547870284035124,-1.1656920667156089677,2.866442843916529571,-0.9698583812778138035,-3.9511323997210450448
0.1350000000000001,0.7291849117378632961,-1.1740570691106919332,2.8654688338859367206,-0.9781653990210372811,-3.9511323997210450307
0.1360000000000001,0.7280066757993546185,-1.1824133439517742918,2.8644865056619487923,-0.98649478633584238734,-3.9511323997210450146
0.1370000000000001,0.72682008799671688674,-1.1907607784846071839,2.863495836820413894,-0.9948466521591183659,-3.9511323997210449988
0.1380000000000001,0.7256251572270955701,-1.1990992588498091989,2.8624968048289165595,-1.0032211040790035624,-3.9511323997210449832
0.1390000000000001,0.72442189250205184936,-1.2074286700738347245,2.8614893870481328674,-1.0116182483221422756,-3.9511323997210449676
0.1400000000000001,0.72321030294868129235,-1.2157488960599515829,2.8604735607331983214,-1.0200381897409093194,-3.951132399721044952
0.1410000000000001,0.72199039781074154806,-1.2240598195792290898,2.85944930303508852,-1.0284810318006032212,-3.9511323997210449353
0.1420000000000001,0.7207621864497890461,-1.2323613222615376856,2.8584165910020126484,-1.0369468765666090133,-3.9511323997210449186
0.1430000000000001,0.71952567834632469025,-1.2406532845865613249,2.8573754015808198238,-1.0454358246915315992,-3.951132399721044902
0.1440000000000001,0.7182808831009485335,-1.24893558587482382,2.8563257116184183199,-1.0539479754023007061,-3.9511323997210448865
0.1450000000000001,0.7170278104355234182,-1.2572081042787303666,2.8552674978632077022,-1.0624834264872484653,-3.9511323997210448717
0.1460000000000001,0.71576647019434756764,-1.2654707167736254976,2.8542007369665238967,-1.0710422742831606919,-3.9511323997210448565
0.1470000000000001,0.71449687234533611007,-1.2737232991488687363,2.8531254054840972216,-1.0796246136623029606,-3.9511323997210448396
0.1480000000000001,0.71321902698121151794,-1.2819657259989292449,2.8520414798775234045,-1.0882305380194226109,-3.951132399721044825
