t,phi1,v1,phi2,v2,energy
0.0,3.5970975066834740552,0.0,4.4588240658529594285,0.0,20.080428126247129215
0.001,3.5970982832670611346,0.0015531758858191441788,4.458828308357827678,0.008485006179952712691,20.080428126247129215
0.002,3.597100613070092398,0.003106456311793529754,4.458841035851093108,0.016969969681199462153,20.080428126247129214
0.003,3.5971044962493785497,0.004659945819335575175,4.458862248268737352,0.025454847824215212437,20.080428126247129207
0.004,3.5971099330662728584,0.0062137489523715837877,4.4588919455040617688,0.033939597927836905253,20.080428126247129203
0.005,3.5971169238866743001,0.007767970258597513386,4.4589301274076853917,0.04242417730844475635,20.080428126247129203
0.006,3.5971254691810319536,0.009322714290733338668,4.4589767937875420677,0.05090854327914392038,20.080428126247129202
0.007,3.5971355695243506518,0.010878085607775538097,4.4590319444088767687,0.059392653148946646152,20.080428126247129205
0.008,3.5971472255961978834,0.01243418877624723723,4.4590955789942410934,0.06787646422195504337,20.080428126247129202
0.009000000000000001,3.5971604381807119437,0.013991128371445541179,4.4591676972234879452,0.07635993379654458092,20.080428126247129203
0.010000000000000002,3.5971752081666113299,0.015549008978685589588,4.4592482987337654023,0.08484301916454843558,20.080428126247129203
0.011000000000000003,3.5971915365472053809,0.017107935194540868423,4.4593373831195097633,0.093325677610442808725,20.080428126247129207
0.012000000000000004,3.5972094244204061533,0.018668011628079313815,4.4594349499324377867,0.10180786641053332681,20.080428126247129203
0.013000000000000005,3.597228872988741532,0.02022934290209474437,4.459540998681538112,0.110289542832142639714,20.080428126247129205
0.014000000000000005,3.5972498835593695703,0.0217920336543331595,4.4596555288330618724,0.11877066413279932912,20.080428126247129207
0.015000000000000006,3.597272457544094052,0.023356188538713442799,4.4597785398105124948,0.12725118755942823677,20.08042812624712921
0.016000000000000007,3.597296596459381273,0.024921912226542010886,4.4599100309946346932,0.13573107034754232011,20.080428126247129205
0.017000000000000008,3.5973223019263780328,0.026489309407720949751,4.4600500017234026517,0.14421026972043614019,20.080428126247129202
0.01800000000000001,3.5973495756709308313,0.028058484791949182368,4.4601984512920074036,0.15268874288838108418,20.0804281262471292
0.01900000000000001,3.5973784195236062642,0.029629543109916213156,4.4603553789528434088,0.16116644704782242146,20.0804281262471292
0.02000000000000001,3.5974088354197126059,0.031202589114487996861,4.460520783915494325,0.16964333938057828938,20.0804281262471292
0.02100000000000001,3.5974408253993225759,0.03277772758188448143,4.460694665346717981,0.1781193770530407015,20.080428126247129202
0.022000000000000013,3.5974743916072972785,0.03435506331284837668,4.4608770223704305538,0.18659451721537866724,20.0804281262471292
0.023000000000000013,3.5975095362933113053,0.03593470113380470288,4.4610678540676899457,0.1950687170007435086,20.080428126247129196
0.024000000000000014,3.5975462618118789935,0.03751674589801067569,4.4612671594766783708,0.20354193352447645532,20.080428126247129196
0.025000000000000015,3.5975845706223818293,0.039101302486695486537,4.461474937592684151,0.21201412388331859592,20.080428126247129196
0.026000000000000016,3.5976244652890969847,0.04068847581018954007,4.46169118736808272,0.22048524515462325785,20.080428126247129196
0.027000000000000017,3.5976659484812269797,0.04227837080904271304,4.461915907712316845,0.22895525439557088551,20.080428126247129191
0.028000000000000018,3.597709022972930455,0.04387109245513120193,4.46214909749187606,0.23742410864238647996,20.08042812624712919
0.02900000000000002,3.5977536916433540473,0.045466745752752529525,4.462390755530275321,0.24589176490955966001,20.08042812624712919
0.03000000000000002,3.5977999574766653538,0.047065435739708283625,4.462640880608032883,0.25435818018906739858,20.08042812624712919
0.03100000000000002,3.5978478235620869712,0.048667267488374164436,4.4628994714626473985,0.26282331144959948386,20.080428126247129186
0.03200000000000002,3.5978972930939316002,0.050272346106756920288,4.463166526788574243,0.2712871156357867487,20.08042812624712919
0.03300000000000002,3.5979483693716381987,0.051880776739537754785,4.463442045237201075,0.27974954966743210716,20.080428126247129193
0.03400000000000002,3.5980010557998091728,0.053492664569101791893,4.463726025416822623,0.28821057043874443013,20.08042812624712919
0.035000000000000024,3.5980553558882485896,0.055108114816553189138,4.4640184658926147054,0.2966701348175752877,20.080428126247129191
0.036000000000000025,3.5981112732520013967,0.056727232742715492633,4.4643193651866075007,0.3051281996446585787,20.080428126247129193
0.037000000000000026,3.5981688116113936366,0.058350123649116831517,4.4646287217776580445,0.31358472173285306236,20.080428126247129195
0.03800000000000003,3.5982279747920736365,0.059976892878959553134,4.46494653410142198,0.32203965786638780058,20.080428126247129198
0.03900000000000003,3.5982887667250541617,0.061607645818073904327,4.465272800550324551,0.33049296480011051302,20.080428126247129198
0.04000000000000003,3.5983511914467555123,0.06324248789585536812,4.4656075194735308457,0.33894459925873884006,20.080428126247129202
0.04100000000000003,3.5984152530990495507,0.064881524586185269333,4.4659506891769152957,0.347394517936114503,20.0804281262471292
0.04200000000000003,3.5984809559293046413,0.06652486140833426668,4.4663023079230304247,0.35584267749446034292,20.0804281262471292
0.04300000000000003,3.5985483042904314833,0.06817260392784835336,4.4666623739310748627,0.36428903456364021324,20.0804281262471292
0.04400000000000003,3.5986173026409298225,0.06982485775741699238,4.4670308853768606154,0.37273354574042169356,20.080428126247129202
0.04500000000000003,3.5986879555449360203,0.071481728557723017414,4.467407840392779603,0.38117616758774158564,20.080428126247129202
0.046000000000000034,3.598760267672271465,0.073143322038273934284,4.4677932370677694617,0.38961685663397414373,20.080428126247129203
0.047000000000000035,3.5988342437984918042,0.07480974395821426304,4.4681870734472786165,0.39805556937220198585,20.080428126247129203
0.048000000000000036,3.5989098888049369791,0.076481100127118565025,4.4685893475332306274,0.40649226225948962256,20.080428126247129202
0.04900000000000004,3.5989872076787820443,0.07815749640576480415,4.4690000572839878065,0.41492689171615953413,20.080428126247129203
0.05000000000000004,3.5990662055130887484,0.079839038706887696344,4.4694192006143141182,0.42335941412507071809,20.0804281262471292
0.05100000000000004,3.5991468875068578599,0.081525832995911706065,4.469846775395337353,0.43178978583089962085,20.080428126247129202
0.05200000000000004,3.5992292589650822132,0.083217985291663353605,4.4702827794545105895,0.44021796313942335974,20.0804281262471292
0.05300000000000004,3.5993133252988004605,0.08491560166706250191,4.4707272105755729344,0.44864390231680513284,20.080428126247129196
0.05400000000000004,3.5993990920251514995,0.08661878824979229672,4.471180066498509554,0.4570675595888817065,20.080428126247129196
0.05500000000000004,3.5994865647674295641,0.08832765122294743877,4.4716413449195109926,0.4654888911404528608,20.080428126247129203
0.05600000000000004,3.5995757492551399507,0.090042296825660472236,4.4721110434909317807,0.47390785311457266595,20.080428126247129205
0.057000000000000044,3.5996666513240553598,0.09176283135370577837,4.4725891598212483345,0.48232440161184245286,20.0804281262471292
0.058000000000000045,3.59975927691627283,0.09348936116008096885,4.4730756914750161514,0.49073849268970533345,20.0804281262471292
0.059000000000000045,3.5998536320802712433,0.0952219926555653785,4.473570635972826299,0.49915008236174211642,20.080428126247129198
0.060000000000000046,3.5999497229709693756,0.09696083230925536234,4.4740739907912612018,0.50755912659696845616,20.080428126247129198
0.06100000000000005,3.6000475558497844718,0.0987059866490761073,4.474585753362849726,0.51596558131913306336,20.0804281262471292
0.06200000000000005,3.600147137084691321,0.10045756226226967438,4.4751059210760215593,0.52436940240601679584,20.080428126247129203
0.06300000000000004,3.6002484731502818072,0.102215665795858992266,4.4756344912750608963,0.53277054568873244086,20.080428126247129202
0.06400000000000004,3.6003515706278249114,0.10398040395708752918,4.4761714612600594174,0.5411689669510249894,20.080428126247129202
0.06500000000000004,3.6004564362053271434,0.1057518835138343749,4.476716828286868573,0.54956462192857219445,20.080428126247129203
0.06600000000000004,3.6005630766775933726,0.10753021129500447047,4.4772705895670511676,0.55795746630828519573,20.080428126247129195
0.06700000000000005,3.6006714989462880396,0.109315494190893728875,4.477832742267832239,0.56634745572760898414,20.080428126247129193
0.06800000000000005,3.6007817100199967192,0.111107839153528795114,4.4784032835120492475,0.57473454577382246996,20.080428126247129193
0.06900000000000005,3.6008937170142880102,0.11290735319698119999,4.4789822103781015573,0.5831186919833379088,20.080428126247129195
0.07000000000000005,3.6010075271517757265,0.11471414339765566723,4.479569519899899219,0.5914998498409994306,20.0804281262471292
0.07100000000000005,3.6011231477621813638,0.11652831689455233942,4.4801652090668110514,0.5998779747793804068,20.080428126247129196
0.07200000000000005,3.6012405862823968152,0.11834998088950269346,4.480769274823612016,0.608253022178079382,20.080428126247129195
0.07300000000000005,3.6013598502565473088,0.12017924264737892224,4.4813817140704298933,0.61662494736301428575,20.080428126247129195
0.07400000000000005,3.6014809473360545424,0.12201620949627656438,4.4820025236626912456,0.624993705605714632,20.080428126247129195
0.07500000000000005,3.6016038852796999877,0.123860988827670169946,4.482631700411066675,0.63335925212261140265,20.0804281262471292
0.07600000000000005,3.6017286719536883348,0.12571368809654179516,4.483269241081415369,0.641721542074324303,20.080428126247129198
0.07700000000000005,3.6018553153317110528,0.12757441482148212495,4.4839151423947289296,0.650080530564946067,20.080428126247129198
0.07800000000000006,3.6019838234950100379,0.12944327658476402795,4.4845694010270744905,0.65843617264132348066,20.0804281262471292
0.07900000000000006,3.6021142046324413199,0.13132038103238835342,4.4852320136095371063,0.66678842329233478143,20.080428126247129205
0.08000000000000006,3.6022464670405388023,0.13320583587410178593,4.485902976728161425,0.6751372374481630836,20.080428126247129212
0.08100000000000006,3.6023806191235780059,0.13509974888338657853,4.486582286923892625,0.68348256997956546854,20.080428126247129215
0.08200000000000006,3.6025166693936397852,0.13700222789742199092,4.487269940692516622,0.6918243756971373689,20.080428126247129219
0.08300000000000006,3.6026546264706739966,0.13891338081701726439,4.4879659344845995385,0.7001626093505718686,20.080428126247129224
0.08400000000000006,3.6027944990825630824,0.14083331560651597109,4.4886702647054264282,0.70849722562791352625,20.080428126247129222
0.08500000000000006,3.602936296065185544,0.14276214029367158009,4.4893829277149392516,0.7168281791548063266,20.080428126247129226
0.08600000000000006,3.6030800263624792798,0.14469996296949408841,4.4901039198276740966,0.72515542449373534856,20.080428126247129228
0.08700000000000006,3.6032256990265047506,0.14664689178806757042,4.4908332373126976394,0.7334789161432617327,20.080428126247129235
0.08800000000000006,3.6033733232175079514,0.14860303496633850435,4.4915708763935428345,0.7417986085372505212,20.080428126247129236
0.08900000000000007,3.6035229082039831562,0.15056850078387473968,4.4923168332481438272,0.75011445604409093314,20.080428126247129238
0.09000000000000007,3.6036744633627354056,0.15254339758259497469,4.4930711040087700876,0.7584264129659086283,20.080428126247129238
0.09100000000000007,3.6038279981789427112,0.15452783376646861839,4.4938336847619597464,0.76673443353776950444,20.08042812624712924
0.09200000000000007,3.6039835222462179422,0.15652191780118591594,4.4946045715484521377,0.7750384719268745632,20.08042812624712924
0.09300000000000007,3.6041410452666703703,0.15852575821379822255,4.4953837603631195234,0.7833384822317453703,20.080428126247129238
0.09400000000000007,3.604300577050966838,0.16053946359232831441,4.4961712471548980047,0.7916344184813996275,20.08042812624712924
0.09500000000000007,3.6044621275183925226,0.16256314258535063172,4.496967027826717601,0.7999262346345163629,20.080428126247129247
0.09600000000000007,3.6046257066969112656,0.1645969039015413524,4.4977710982354314902,0.8082138845785902402,20.080428126247129248
0.09700000000000007,3.6047913247232254367,0.16664085630919820068,4.4985834541917443952,0.81649732212907447456,20.08042812624712925
0.09800000000000007,3.6049589918428353024,0.1686951086357298992,4.49940409146014011,0.82477650102851183834,20.080428126247129252
0.09900000000000007,3.6051287184100978694,0.17075976976711517786,4.50023300575880815,0.8330513749456532272,20.080428126247129255
0.10000000000000007,3.6053005148882851711,0.17283494864733125722,4.5010701927595695125,0.84132189747456325113,20.080428126247129262
0.10100000000000008,3.6054743918496419683,0.17492075427775172909,4.5019156480878015397,0.84958802213371230577,20.080428126247129266
0.10200000000000008,3.605650359975442831,0.17701729571651376087,4.5027693673223618625,0.8578497023650545692,20.080428126247129268
0.10300000000000008,3.6058284300560485725,0.17912468207785455467,4.5036313459955114183,0.86610689153309136407,20.080428126247129271
0.10400000000000008,3.6060086129909620057,0.18124302253141699701,4.5045015795928365246,0.8743595429239193145,20.08042812624712927
0.10500000000000008,3.6061909197888829884,0.18337242630152443823,4.505380063553169989,0.88260760974426271855,20.08042812624712927
0.10600000000000008,3.606375361567762728,0.18551300266642454536,4.506266793268511249,0.89085104512048955157,20.08042812624712927
0.10700000000000008,3.606561949554857315,0.18766486095750217624,4.5071617640839455148,0.89908980209761050546,20.080428126247129273
0.10800000000000008,3.606750695086780454,0.18982811055846122613,4.5080649712975619063,0.9073238336382604619,20.080428126247129274
0.10900000000000008,3.6069416096095553602,0.19200286090447540234,4.5089764101603705586,0.91555309262166179014,20.080428126247129271
0.11000000000000008,3.6071347046786657918,0.19418922148130788563,4.509896075876218683,0.9237775318425688521,20.080428126247129273
0.11100000000000008,3.607329991959106187,0.19638730182439984133,4.5108239636017055645,0.93199710401019309023,20.080428126247129276
0.11200000000000009,3.6075274832254308722,0.19859721151792774586,4.5117600684460964747,0.94021176174710806615,20.080428126247129276
0.11300000000000009,3.6077271903618023138,0.20081906019382949846,4.512704385471235472,0.9484214575881338111,20.080428126247129283
0.11400000000000009,3.6079291253620383785,0.20305295753079929085,4.513656909691457089,0.9566261439791998423,20.080428126247129287
0.11500000000000009,3.6081333003296585764,0.20529901325325121061,4.5146176360734968586,0.9648257732761861921,20.08042812624712929
0.11600000000000009,3.6083397274779292461,0.20755733713025155742,4.515586559536400678,0.9730202977437417906,20.080428126247129294
0.11700000000000009,3.6085484191299076636,0.20982803897441985417,4.5165636749514329767,0.98120966955407953566,20.080428126247129299
0.11800000000000009,3.6087593877184850303,0.21211122864079853767,4.517548977141983668,0.9893938407857473774,20.080428126247129302
0.11900000000000009,3.6089726457864283193,0.21440701602569131652,4.51854246088347386,0.9975727634223747388,20.08042812624712931
0.12000000000000009,3.6091882059864209425,0.21671551106547018636,4.519544120903260298,1.0057463893513935873,20.080428126247129313
0.1210000000000001,3.6094060810811022088,0.21903682373535109505,4.5205539518805385193,1.0139146703627334673,20.080428126247129314
0.1220000000000001,3.609626283943105543,0.22137106404813825287,4.521571948446244684,1.0220775581474897956,20.080428126247129314
0.1230000000000001,3.6098488275550954332,0.22371834205293708486,4.5225981051829560672,1.03023500429656472,20.080428126247129318
0.1240000000000001,3.6100737250098030762,0.22607876783383582497,4.5236324166247901713,1.0383869602992798312,20.080428126247129323
0.12500000000000008,3.6103009895100606865,0.2284524515085557531,4.5246748772573024424,1.0465333775419600172,20.080428126247129323
0.12600000000000008,3.6105306343688344426,0.23083950322707007847,4.5257254815173825506,1.0546742073064877412,20.08042812624712933
0.12700000000000009,3.6107626730092560352,0.23324003317019147433,4.526784223793149215,1.0628094007688270214,20.080428126247129332
0.12800000000000009,3.6109971189646527868,0.23565415154812827053,4.527851098423843532,1.0709389089975163856,20.080428126247129337
0.1290000000000001,3.6112339858785763125,0.23808196859900931241,4.5289260996997207833,1.0790626829521300671,20.080428126247129347
0.1300000000000001,3.6114732875048296907,0.24052359458737749501,4.530009221861940691,1.0871806734817067084,20.080428126247129354
0.1310000000000001,3.61171503770749311,0.24297913980265198374,4.5311004591024560805,1.0952928313231448305,20.080428126247129361
0.1320000000000001,3.6119592504609479636,0.24544871455755913327,4.532199805563899923,1.1033991070995643252,20.080428126247129373
0.1330000000000001,3.6122059398498993596,0.24793242918653211727,4.5333072553394707267,1.1114994513186332226,20.080428126247129377
0.1340000000000001,3.6124551200693970142,0.25043039404407928296,4.53442280247281623,1.1195938143708589814,20.080428126247129377
0.1350000000000001,3.612706805424854497,0.25294271950312124448,4.535546440957915372,1.127682146527843548,20.080428126247129382
0.1360000000000001,3.6129610103320668006,0.25546951595329673036,4.5366781647389585025,1.1357643979405014286,20.080428126247129384
0.1370000000000001,3.6132177493172261977,0.25801089379923720005,4.537817967710225783,1.1438405186372400102,20.080428126247129394
0.1380000000000001,3.613477037016936358,0.26056696345881024567,4.5389658437159637588,1.1519104585221013713,20.080428126247129403
0.1390000000000001,3.613738888178224693,0.26313783536133179464,4.5401217865502600437,1.1599741673728648126,20.080428126247129412
0.1400000000000001,3.6140033176585528987,0.26572361994574712868,4.5412857899569160944,1.1680315948391093434,20.08042812624712942
0.1410000000000001,3.6142703404258256605,0.2683244276587807357,4.5424578476293180247,1.1760826904402353511,20.080428126247129422
0.1420000000000001,3.6145399715583974957,0.27094036895305500964,4.543637953210305418,1.1841274035634446833,20.080428126247129425
0.1430000000000001,3.614812226245077697,0.27357155428517781348,4.5448261002920381044,1.192165683461678368,20.080428126247129425
0.1440000000000001,3.6150871197851333493,0.27621809411379892046,4.546022282415860847,1.2001974792515111983,20.080428126247129434
0.1450000000000001,3.6153646675882903873,0.2788800988976353472,4.547226493072165909,1.2082227399110024048,20.080428126247129441
0.1460000000000001,3.6156448851747326615,0.28155767909346559222,4.5484387257002534427,1.2162414142775016373,20.080428126247129443
0.1470000000000001,3.6159277881750989843,0.28425094515409279235,4.5496589736881896623,1.224253451045409481,20.080428126247129446
0.1480000000000001,3.6162133923304781225,0.28696000752627680812,4.550887230372662759,1.2322587987638917264,20.080428126247129453
0.1490000000000001,3.6165017134924017095,0.28968497664863524863,4.5521234890388365024,1.2402574058345466145,20.080428126247129457
0.1500000000000001,3.6167927676228350373,0.2924259629495134449,4.5533677429202014863,1.2482492205090242803,20.08042812624712946
0.1510000000000001,3.617086570794165709,0.29518307684482337865,4.5546199851984239706,1.2562341908865976134,20.080428126247129458
