t,phi1,v1,phi2,v2,energy
0.0,1.7791584617704532256,0.0,3.3429194533133279599,0.0,13.6704076315325738595
0.001,1.7791536592913065003,-0.009604958509801452771,3.342920467939003889,0.0020292282913504956344,13.670407631532573847
0.002,1.7791392518525677378,-0.019209919617571722356,3.3429235116776686051,0.0040581798565171372054,13.670407631532573836
0.003,1.7791152394503364133,-0.02881488593080404851,3.3429285841142326503,0.0060865779688327757413,13.670407631532573827
0.004,1.7790816220780957783,-0.038419860076039262896,3.3429356845568794574,0.0081141459006621970985,13.670407631532573815
0.005,1.7790383997266890528,-0.048024844708386450035,3.342944812037064137,0.010140606922914401561,13.670407631532573804
0.006,1.7789855723842860978,-0.05762984252103984657,3.3429559653095117747,0.012165684304550459381,13.670407631532573794
0.007,1.778923140036340574,-0.06723485625479072535,3.3429691428522152368,0.0141891013120854697785,13.670407631532573782
0.008,1.7788511026655375915,-0.07683988870753301139,3.3429843428664324716,0.016210581209083152797,13.670407631532573774
0.009000000000000001,1.778769460251731857,-0.08644494274376137706,3.3430015632766833008,0.018229847255641605782,13.670407631532573763
0.010000000000000002,1.7786782127718763282,-0.096050021304060564765,3.3430208017307456942,0.02024662270786875907,13.670407631532573754
0.011000000000000003,1.7785773601999413825,-0.10565512741458468562,3.3430420555996515112,0.022260630817346068787,13.670407631532573743
0.012000000000000004,1.7784669025068245133,-0.11526026419652524393,3.3430653219776817005,0.024271594830578988423,13.670407631532573735
0.013000000000000005,1.7783468396602505632,-0.12486543487556663786,3.343090597682360945,0.026279237988432765084,13.6704076315325737225
0.014000000000000005,1.7782171716246625095,-0.13447064279132788767,3.3431178792544517303,0.02828328352555211107,13.670407631532573711
0.015000000000000006,1.7780778983611028148,-0.14407589140678934423,3.3431471629579478286,0.030283454669763306595,13.670407631532573701
0.016000000000000007,1.7779290198270853584,-0.15368118431770313142,3.3431784447800671739,0.032279474641457295118,13.670407631532573687
0.017000000000000008,1.7777705359764579681,-0.16328652526198607735,3.3432117204312441073,0.03427106665295233892,13.670407631532573679
0.01800000000000001,1.7776024467592555647,-0.17289191812909389104,3.3432469853451209788,0.036257953907834809137,13.670407631532573668
0.01900000000000001,1.777424752121543946,-0.18249736696937534204,3.3432842346785390756,0.03823985960027669153,13.670407631532573656
0.02000000000000001,1.7772374520052542249,-0.1921028760034052027,3.3433234633115288558,0.040216506914328396862,13.670407631532573646
0.02100000000000001,1.7770405463480079461,-0.20170844963129471366,3.343364665847299463,0.042187619023185472745,13.670407631532573638
0.022000000000000013,1.7768340350829329041,-0.21131409244197833596,3.3434078366122274926,0.044152919088427822297,13.67040763153257363
0.023000000000000013,1.7766179181384696875,-0.22091980922247555346,3.3434529696558449852,0.04611213025923004392,13.67040763153257362
0.024000000000000014,1.7763921954381689735,-0.23052560496712649264,3.343500058750826612,0.048064975671541516033,13.670407631532573612
0.025000000000000015,1.7761568669004796006,-0.24013148488680012794,3.3435490973929760283,0.050011178447234860316,13.670407631532573602
0.026000000000000016,1.7759119324385274484,-0.24973745441807384288,3.343600078801211356,0.05195046169322142758,13.670407631532573594
0.027000000000000017,1.775657391959885151,-0.25934351923238311972,3.3436529959175497664,0.05388254850053246119,13.670407631532573583
0.028000000000000018,1.7753932453663326771,-0.26894968524514013253,3.3437078414070911258,0.055807161943364604155,13.670407631532573576
0.02900000000000002,1.7751194925536088079,-0.27855595862482002007,3.3437646076580006687,0.057724025078088428015,13.670407631532573566
0.03000000000000002,1.7748361334111535441,-0.28816234580201361844,3.3438232867814906592,0.059632860942218673743,13.670407631532573556
0.03100000000000002,1.7745431678218414793,-0.29776885347844543508,3.343883870611801005,0.061533392553344907744,13.670407631532573546
0.03200000000000002,1.7742405956617061712,-0.30737548863595564775,3.3439463507061787787,0.06342534290802130912,13.670407631532573536
0.03300000000000002,1.7739284167996555513,-0.31698225854544491605,3.3440107183448566125,0.06530843498061431817,13.6704076315325735265
0.03400000000000002,1.7736066310971784073,-0.32658917077578079424,3.3440769645310299142,0.0671823917221068902,13.670407631532573516
0.035000000000000024,1.77327523840804198,-0.3361962332026645372,3.3441450799908328671,0.06904693605885811338,13.6704076315325735065
0.036000000000000025,1.7729342385779807126,-0.34580345401745709458,3.3442150551733131685,0.07090179089131696434,13.670407631532573497
0.037000000000000026,1.7725836314443761957,-0.35541084173596308992,3.3442868802504054561,0.07274667909268899104,13.670407631532573488
0.03800000000000003,1.77222341683592835,-0.36501840520717158535,3.344360545116903378,0.074581323507554728206,13.670407631532573481
0.03900000000000003,1.7718535945723178892,-0.3746261536219524345,3.3444360393904302552,0.07640544695043866738,13.670407631532573475
0.04000000000000003,1.7714741644638601103,-0.38423409652170702953,3.3445133524114082908,0.07821877220432762041,13.670407631532573468
0.04100000000000003,1.7710851263111500563,-0.39384224380697225085,3.3445924732430262689,0.08002102201913733286,13.6704076315325734605
0.04200000000000003,1.7706864799046990985,-0.40345060574597643144,3.3446733906712056948,0.081811919110126221566,13.670407631532573452
0.04300000000000003,1.7702782250245629878,-0.41305919298314614988,3.344756093204565323,0.083591186156255129225,13.670407631532573442
0.04400000000000003,1.7698603614399614237,-0.42266801654756267016,3.3448405690743840159,0.0853585457984920074,13.670407631532573435
0.04500000000000003,1.7694328889088891925,-0.43227708786136684815,3.3449268062345618793,0.087113720638060459087,13.670407631532573425
0.046000000000000034,1.768995807177718928,-0.44188641874811132913,3.3450147923615796198,0.08885643323463109147,13.670407631532573418
0.047000000000000035,1.7685491159807955453,-0.45149602144105886205,3.3451045148544560626,0.09058640610445465008,13.670407631532573411
0.048000000000000036,1.7680928150400224048,-0.46110590859142556078,3.3451959608347037738,0.09230336171843592605,13.670407631532573408
0.04900000000000004,1.7676269040644392602,-0.47071609327656794474,3.3452891171462827262,0.094007022500147449626,13.670407631532573401
0.05000000000000004,1.767151382749792049,-0.48032658900811259445,3.3453839703555519481,0.095697110823782004665,13.670407631532573395
0.05100000000000004,1.7666662507780945816,-0.489937409740027261,3.3454805067512190949,0.097373349012043021066,13.6704076315325733885
0.05200000000000004,1.7661715078171821893,-0.49954856987663227085,3.3455787123442878776,0.09903545933397192484,13.6704076315325733825
0.05300000000000004,1.7656671535202573917,-0.50916008428055107074,3.3456785728680032887,0.10068316400271154841,13.670407631532573376
0.05400000000000004,1.7651531875254276436,-0.51877196828059876047,3.345780073777794558,0.10231618517320472767,13.670407631532573369
0.05500000000000004,1.7646296094552352262,-0.5283842376796074642,3.3458832002512157743,0.103934244939827235964,13.670407631532573363
0.05600000000000004,1.7640964189161793429,-0.53799690876218739374,3.3459879371878841084,0.10553706533395423016,13.670407631532573357
0.057000000000000044,1.7635536154982304891,-0.54760999830242246007,3.3460942692094155651,0.107124368321459408684,13.670407631532573352
0.058000000000000045,1.7630011987743371575,-0.55722352357149929265,3.346202180659358206,0.10869587580014610691,13.670407631532573349
0.059000000000000045,1.7624391682999249497,-0.566837502345268529,3.3463116556031227648,0.110251309597109581406,13.670407631532573343
0.060000000000000046,1.7618675236123881597,-0.57645195291173723833,3.3464226778279105902,0.111790391466029760845,13.670407631532573337
0.06100000000000005,1.7612862642305739009,-0.5860668940784913475,3.34653523084263885,0.11331284308439376833,13.670407631532573332
0.06200000000000005,1.7606953896542588448,-0.59568234518004693984,3.346649297877862918,0.114818386050647547146,13.670407631532573326
0.06300000000000004,1.7600948993636186464,-0.6052983260851292983,3.3467648618856958803,0.11630674188127595013,13.670407631532573321
0.06400000000000004,1.7594847928186901249,-0.61491485720387856944,3.3468819055397250834,0.117777632007810680665,13.670407631532573316
0.06500000000000004,1.7588650694588262778,-0.6245319594949809253,3.3470004112349256544,0.11923077777376550262,13.670407631532573315
0.06600000000000004,1.7582357287021441999,-0.63414965447272410293,3.3471203610875709218,0.12066590043149816543,13.67040763153257331
0.06700000000000005,1.7575967699449659869,-0.6437679642139762046,3.3472417369351396578,0.122082721138998520445,13.670407631532573305
0.06800000000000005,1.7569481925612526977,-0.65338691136508664177,3.347364520336220075,0.123480960956602334884,13.670407631532573306
0.06900000000000005,1.7562899959020314547,-0.66300651914870811055,3.3474886925704104973,0.12486034084363034029,13.6704076315325733035
0.07000000000000005,1.7556221792948157638,-0.6726268113705384861,3.347614234638216633,0.12622058165495208364,13.670407631532573301
0.07100000000000005,1.7549447420430191318,-0.68224781242598152623,3.347741127260945374,0.12756140413747418099,13.670407631532573298
0.07200000000000005,1.7542576834253620642,-0.69186954730672527657,3.3478693508805950465,0.12888252892655260531,13.670407631532573296
0.07300000000000005,1.7535610026952725268,-0.70149204160723707007,3.3479988856597420331,0.13018367654232867318,13.670407631532573292
0.07400000000000005,1.7528546990802799537,-0.71111532153117401584,3.3481297114814236955,0.13146456738598842769,13.670407631532573291
0.07500000000000005,1.7521387717814028878,-0.7207394138977078738,3.3482618079490175159,0.1327249217359451487,13.670407631532573289
0.07600000000000005,1.7514132199725303405,-0.730364346147763212,3.3483951543861163844,0.13396445974394475527,13.670407631532573289
0.07700000000000005,1.7506780427997969555,-0.7399901463501677454,3.3485297298363999514,0.13518290143109390002,13.670407631532573289
0.07800000000000006,1.749933239380952068,-0.7496168432077137545,3.3486655130635019702,0.13637996668381058975,13.670407631532573289
0.07900000000000006,1.749178808804722747,-0.75924446606312948445,3.3488024825508735513,0.13755537524969720214,13.67040763153257329
0.08000000000000006,1.7484147501301709109,-0.7688730449049594245,3.3489406165016422513,0.13870884673333580431,13.67040763153257329
0.08100000000000006,1.7476410623860446102,-0.77850261037335236823,3.349079892838466918,0.13984010059200571554,13.6704076315325732905
0.08200000000000006,1.7468577445701235679,-0.7881331937657561558,3.3492202892033882127,0.14094885613132329303,13.670407631532573289
0.08300000000000006,1.7460647956485590718,-0.7977648270425179989,3.3493617829576747364,0.14203483250080395693,13.67040763153257329
0.08400000000000006,1.7452622145552083154,-0.80739754283238928783,3.3495043511816646764,0.14309774868934650902,13.670407631532573292
0.08500000000000006,1.7444500001909632812,-0.81703137443793378284,3.3496479706746029002,0.14413732352063983714,13.670407631532573293
0.08600000000000006,1.7436281514230742649,-0.8266663558408380865,3.3497926179544734158,0.14515327564849213698,13.670407631532573296
0.08700000000000006,1.7427966670844681383,-0.8363025217071232974,3.3499382692578271242,0.14614532355208282119,13.670407631532573293
0.08800000000000006,1.7419555459730614513,-0.8459399073922567417,3.3500849005396047841,0.1471131855311373261,13.670407631532573292
0.08900000000000007,1.7411047868510684712,-0.8555785489461626783,3.3502324874729551131,0.1480565797010250667,13.670407631532573297
0.09000000000000007,1.7402443884443042626,-0.8652184831181308729,3.3503810054490479496,0.14897522398778083025,13.6704076315325732975
0.09100000000000007,1.7393743494414829115,-0.8748597473616219321,3.3505304295768823955,0.14986883612304994133,13.6704076315325733
0.09200000000000007,1.7384946684935109944,-0.8845023798389682892,3.3506807346830898696,0.15073713363895757166,13.6704076315325733035
0.09300000000000007,1.7376053442127764006,-0.894146419425969729,3.3508318953117319893,0.15157983386290261094,13.670407631532573308
0.09400000000000007,1.7367063751724326105,-0.90379190571638233693,3.3509838857240932103,0.15239665391227655697,13.67040763153257331
0.09500000000000007,1.735797759905678541,-0.91343887902629975574,3.351136679898468148,0.15318731068910792691,13.670407631532573311
0.09600000000000007,1.7348794969050340612,-0.9230873803984256283,3.3512902515299435049,0.15395152087463273476,13.670407631532573313
0.09700000000000007,1.7339515846216112928,-0.932737451606236103,3.351444574030174534,0.15468900092379162424,13.670407631532573317
0.09800000000000007,1.7330140214643818025,-0.9423891351580312727,3.3515996205271559613,0.15539946705965429094,13.670407631532573322
0.09900000000000007,1.7320668057994397986,-0.9520424743008744173,3.3517553638649872963,0.1560826352677718726,13.6704076315325733235
0.10000000000000007,1.7311099359492614459,-0.9616975130244179106,3.3519117766036324612,0.15673822129045803187,13.670407631532573329
0.10100000000000008,1.7301434101919604106,-0.9713542960646146537,3.352068831018673663,0.15736594062099950164,13.670407631532573333
0.10200000000000008,1.7291672267605397534,-0.98101286890731388565,3.3522264991010594433,0.15796550849779691023,13.670407631532573338
0.10300000000000008,1.7281813838421402822,-0.99067327779174022196,3.3523847525568468352,0.1585366398984367499,13.6704076315325733434
0.10400000000000008,1.7271858795772854878,-1.0003355697138547634,3.3525435628069375545,0.15907904953369540015,13.670407631532573349
0.10500000000000008,1.7261807120591231758,-1.0099997924295971108,3.3527029009868081662,0.15959245184147616511,13.670407631532573353
0.10600000000000008,1.7251658793326639167,-1.0196659944580071179,3.3528627379462341497,0.16007656098068033264,13.670407631532573357
0.10700000000000008,1.7241413793940164365,-1.0293342250842252045,3.3530230442490078077,0.16053109082501331212,13.670407631532573364
0.10800000000000008,1.7231072101896200658,-1.0390045343623700469,3.3531837901726499447,0.16095575495672695688,13.670407631532573371
0.10900000000000008,1.7220633696154743748,-1.048676973118292455,3.35334494570811526,0.16135026666029922732,13.67040763153257338
0.11000000000000008,1.7210098555163661165,-1.058351592952204237,3.3535064805594913873,0.1617143389160524018,13.670407631532573386
0.11100000000000008,1.7199466656850936032,-1.0680284462411808451,3.3536683641436915227,0.16204768439371109217,13.670407631532573394
0.11200000000000009,1.7188737978616886453,-1.0777075861415365846,3.3538305655901405823,0.16235001544590137356,13.6704076315325734016
0.11300000000000009,1.7177912497326361775,-1.087389066591071165,3.3539930537404548285,0.16262104410159238901,13.670407631532573409
0.11400000000000009,1.7166990189300917052,-1.0970729423111863563,3.3541557971481149101,0.16286048205948184247,13.670407631532573419
0.11500000000000009,1.715597103031096698,-1.1067592688088715064,3.3543187640781322622,0.16306804068132684676,13.67040763153257343
0.11600000000000009,1.7144854995567920645,-1.116448102378556669,3.3544819225067088074,0.16324343098522164607,13.670407631532573439
0.11700000000000009,1.7133642059716298412,-1.1261395001038320723,3.3546452401208899108,0.16338636363882378718,13.670407631532573449
0.11800000000000009,1.712233219682583228,-1.135833519859032655,3.3548086843182105354,0.16349654895253036754,13.670407631532573458
0.11900000000000009,1.7110925380383551087,-1.1455302203106863832,3.3549722222063345502,0.16357369687260604368,13.67040763153257347
0.12000000000000009,1.7099421583285851906,-1.1552296609188250462,3.3551358206026871414,0.163617516974264539,13.670407631532573482
0.1210000000000001,1.7087820777830559028,-1.1649319019381562219,3.3552994460340802845,0.16362771845470544551,13.67040763153257349
0.1220000000000001,1.7076122935708971938,-1.174637004419095085,3.355463064736331229,0.16360401012610817146,13.670407631532573501
0.1230000000000001,1.7064328027997903659,-1.1843450302086547213,3.3556266426538739602,0.1635461004085849431,13.670407631532573517
0.1240000000000001,1.7052436025151710915,-1.1940560419511935971,3.3557901454393635904,0.16345369732309482682,13.670407631532573528
0.12500000000000008,1.7040446896994317553,-1.2037701030890188152,3.3559535384532736483,0.163326508484320796,13.670407631532573545
0.12600000000000008,1.7028360612711232628,-1.2134872778628437807,3.3561167867634862268,0.16316424109351192523,13.670407631532573559
0.12700000000000009,1.7016177140841564683,-1.223207631312098878,3.3562798551448749557,0.16296660193129285427,13.670407631532573574
0.12800000000000009,1.7003896449270033626,-1.2329312292750937485,3.3564427080788807698,0.16273329735044272313,13.670407631532573588
0.1290000000000001,1.6991518505218981762,-1.2426581383890297432,3.3566053097530804405,0.1624640332686458404,13.6704076315325736
0.1300000000000001,1.6979043275240385439,-1.2523884260898611033,3.3567676240607478466,0.16215851516121640722,13.670407631532573614
0.1310000000000001,1.6966470725207868848,-1.2621221606120034115,3.356929614600407955,0.16181644805379968114,13.670407631532573631
0.1320000000000001,1.6953800820308721509,-1.2718594109878878333,3.3570912446753834945,0.16143753651505202517,13.670407631532573649
0.1330000000000001,1.6941033525035920994,-1.2816002470473596523,3.357252477293334299,0.16102148464930235009,13.670407631532573664
0.1340000000000001,1.6928168803180162448,-1.2913447394169195841,3.3574132751657893034,0.16056799608919752103,13.6704076315325736835
0.1350000000000001,1.6915206617821896486,-1.3010929595188063373,3.357573600707671179,0.16007677398833436215,13.670407631532573699
0.1360000000000001,1.6902146931323377071,-1.3108449795699188645,3.3577334160368135952,0.15954752101388095787,13.670407631532573717
0.1370000000000001,1.6888989705320720972,-1.3206008725805767336,3.357892682973471097,0.15897993933919001292,13.670407631532573739
0.1380000000000001,1.6875734900715980437,-1.330360712353117023,3.3580513630398215956,0.15837373063640709866,13.67040763153257376
0.1390000000000001,1.6862382477669230718,-1.3401245734803261273,3.358209417459461462,0.157728596069076679,13.67040763153257378
0.1400000000000001,1.6848932395590674119,-1.3498925313437048363,3.3583668071568932314,0.15704423628474887443,13.6704076315325738
0.1410000000000001,1.6835384613132762221,-1.3596646621115650303,3.3585234927570059129,0.15632035140758999022,13.670407631532573818
0.1420000000000001,1.6821739088182338002,-1.3694410427369563095,3.3586794345845479134,0.15555664103099990124,13.670407631532573837
0.1430000000000001,1.6807995777852799537,-1.3792217509554208554,3.3588345926635925834,0.15475280421023945373,13.670407631532573856
0.1440000000000001,1.679415463847628702,-1.3890068652825747949,3.3589889267169963985,0.15390853945507111257,13.670407631532573877
0.1450000000000001,1.6780215625595894848,-1.3987964650115143185,3.359142396165849787,0.15302354472241615136,13.6704076315325738986
0.1460000000000001,1.6766178693957910529,-1.4085906302100447749,3.359294960128920626,0.15209751740903175134,13.670407631532573921
0.1470000000000001,1.6752043797504082185,-1.4183894417177309419,3.3594465774220904244,0.15113015434421144604,13.670407631532573944
0.1480000000000001,1.6737810889363916461,-1.4281929811427666488,3.3595972065577832221,0.15012115178251241733,13.670407631532573965
0.1490000000000001,1.6723479921847008648,-1.4380013308586618961,3.359746805744387229,0.14907020539651322095,13.67040763153257399
0.1500000000000001,1.6709050846435406848,-1.4478145740007455952,3.3598953328856692386,0.1479770102696055896,13.670407631532574013
