t,phi1,v1,phi2,v2,energy
0.0,5.7718816571075279853,0.0,1.7067378014564058564,0.0,-15.781264086836736386
0.001,5.771882799734646353,0.0022852603087731542745,1.7067336307013121133,-0.008341509759061751993,-15.781264086836736391
0.002,5.7718862276524337904,0.0045705934823888450075,1.7067211184386013057,-0.016683014377488603431,-15.78126408683673639
0.003,5.771891940970188325,0.006856072387722293121,1.7067002646759834485,-0.02502450871714529525,-15.781264086836736394
0.004,5.771899939870076721,0.009141769895713747845,1.7066710694263044002,-0.033365987644896807133,-15.781264086836736399
0.005,5.771910224607139562,0.011427758883400149641,1.7066335327075396118,-0.041707446035110866104,-15.7812640868367364076
0.006,5.7719227955092983627,0.01371411223594577227,1.7065876545427853715,-0.050048878772163321685,-15.781264086836736411
0.007,5.771937652977364712,0.01600090284867150484,1.7065334349602475419,-0.058390280752947342216,-15.781264086836736409
0.008,5.771954797485051443,0.018288203629082435592,1.7064708739932277867,-0.06673164688938738623,-15.781264086836736409
0.009000000000000001,5.77197422957898583,0.020576087498893400355,1.7063999716801072798,-0.07507297211095890185,-15.7812640868367364076
0.010000000000000002,5.77199594987872481,0.022864627396052160061,1.7063207280643278921,-0.08341425136721470587,-15.781264086836736411
0.011000000000000003,5.7720199590767722257,0.025153896276759873271,1.7062331431943708471,-0.09175547963031899313,-15.781264086836736414
0.012000000000000004,5.7720462579385980895,0.027443967117488531634,1.7061372171237328396,-0.100096651897589925077,-15.781264086836736418
0.013000000000000005,5.772074847302659859,0.029734912916995028248,1.7060329499108996063,-0.10843776319405174474,-15.781264086836736416
0.014000000000000005,5.7721057280804257306,0.032026806698331531303,1.7059203416193169397,-0.11677880857499736353,-15.781264086836736418
0.015000000000000006,5.7721389012563999355,0.034319721510851837903,1.7057993923173591322,-0.12511978312856236319,-15.781264086836736418
0.016000000000000007,5.7721743678881500448,0.03661373043221338588,1.7056701020782948428,-0.13346068197831135388,-15.78126408683673642
0.017000000000000008,5.7722121291063362702,0.03890890657037460434,1.7055324709802503686,-0.14180150028583762707,-15.781264086836736419
0.01800000000000001,5.7722521861147427645,0.041205323065587287045,1.7053864991061703105,-0.15014223325337703915,-15.781264086836736429
0.01900000000000001,5.772294540190310904,0.043503053092383676247,1.7052321865437756178,-0.15848287612643705916,-15.78126408683673643
0.02000000000000001,5.772339192683174567,0.04580216986155794832,1.7050695333855189947,-0.16682342419644191038,-15.781264086836736437
0.02100000000000001,5.7723861450166973775,0.048102746622141796442,1.7048985397285376542,-0.17516387280339473349,-15.78126408683673644
0.022000000000000013,5.772435398687511932,0.050404856663373809974,1.7047192056746034013,-0.18350421733855769451,-15.781264086836736441
0.023000000000000013,5.7724869552655609876,0.05270857331666235432,1.7045315313300700251,-0.19184445324715095775,-15.781264086836736446
0.024000000000000014,5.772540816394140609,0.055013969957541660076,1.7043355168058179838,-0.20018457603107144062,-15.7812640868367364475
0.025000000000000015,5.772596983789945271,0.057321120007620834803,1.7041311622171963596,-0.2085245812516322626,-15.781264086836736446
0.026000000000000016,5.772655459243114904,0.059630096936525516162,1.7039184676839620642,-0.21686446453232379711,-15.781264086836736442
0.027000000000000017,5.77271624461728388,0.061940974263831890345,1.7036974333302162711,-0.22520422156159723083,-15.78126408683673645
0.028000000000000018,5.772779341849631923,0.06425382556099280524,1.7034680592843380538,-0.23354384809567153019,-15.781264086836736458
0.02900000000000002,5.7728447529509369475,0.06656872445325571384,1.7032303456789152045,-0.24188333996136471095,-15.781264086836736454
0.03000000000000002,5.772912480005629812,0.06888574462157218898,1.7029842926506722084,-0.25022269305895030128,-15.781264086836736457
0.03100000000000002,5.7729825251718509685,0.0712049598044987572,1.7027299003403953497,-0.25856190336503988473,-15.781264086836736465
0.03200000000000002,5.7730548906815090165,0.073526443800088805595,1.7024671688928549207,-0.26690096693549260364,-15.781264086836736468
0.03300000000000002,5.7731295788403411426,0.075850270467775322395,1.7021960984567245081,-0.27523987990835249888,-15.781264086836736468
0.03400000000000002,5.773206592027975438,0.078176513730244238904,1.7019166891844973276,-0.28357863850681455648,-15.781264086836736471
0.035000000000000024,5.773285932697995082,0.080505247575298147365,1.7016289412323995772,-0.2919172390422203262,-15.781264086836736473
0.036000000000000025,5.7733676033780043893,0.082836546057710176904,1.7013328547603007809,-0.30025567791708397078,-15.781264086836736479
0.037000000000000026,5.7734516066696967003,0.08517048330106781705,1.7010284299316210896,-0.30859395162814960006,-15.781264086836736486
0.03800000000000003,5.7735379452489241146,0.08750713349960648618,1.7007156669132355092,-0.31693205676948073737,-15.78126408683673649
0.03900000000000003,5.7736266218657690515,0.08984657092003265003,1.7003945658753750222,-0.3252699900355827598,-15.781264086836736496
0.04000000000000003,5.773717639344617628,0.092188869903336303974,1.700065126991524572,-0.3336077482245591472,-15.781264086836736499
0.04100000000000003,5.7738110005842348442,0.09453410486659264065,1.6997273504383178706,-0.34194532824130237025,-15.781264086836736509
0.04200000000000003,5.7739067085578415638,0.09688235030475273349,1.6993812363954290007,-0.3502827271007202383,-15.7812640868367365125
0.04300000000000003,5.774004766313193283,0.099233680792423075406,1.6990267850454607718,-0.3586199419309985248,-15.78126408683673652
0.04400000000000003,5.7741051769726606676,0.10158817098563382074,1.6986639965738297947,-0.36695696997690067806,-15.78126408683673653
0.04500000000000003,5.774207943733311858,0.10394589562359558805,1.6982928711686482391,-0.37529380860310542086,-15.781264086836736529
0.046000000000000034,5.774313069866996525,0.106306929530444690484,1.6979134090206022338,-0.38363045529758303342,-15.7812640868367365325
0.047000000000000035,5.7744205587204316603,0.108671347616976670166,1.697525610322826869,-0.3919669076750111088,-15.781264086836736539
0.048000000000000036,5.7745304137152890975,0.111039224882368022895,1.6971294752707777662,-0.40030316348023056136,-15.781264086836736538
0.04900000000000004,5.7746426383482847523,0.11341063641588600943,1.6967250040620991681,-0.40863922059174266266,-15.781264086836736542
0.05000000000000004,5.7747572361912695594,0.11578565739858645972,1.6963121968964885139,-0.4169750770252478704,-15.781264086836736548
0.05100000000000004,5.7748742108913221063,0.118164363104999486924,1.695891053975557452,-0.42531073093722721038,-15.7812640868367365515
0.05200000000000004,5.774993566170842947,0.120546828904803038646,1.695461575502689251,-0.43364618062856696214,-15.7812640868367365585
0.05300000000000004,5.7751153058276505784,0.12293313026448422359,1.6950237616828925641,-0.44198142454822739186,-15.78126408683673656
0.05400000000000004,5.7752394337350790783,0.12532334274898836262,1.6945776127226515014,-0.45031646129695626887,-15.781264086836736568
0.05500000000000004,5.77536595384207738,0.12771754202335572465,1.6941231288297719675,-0.45865128963104789323,-15.781264086836736573
0.05600000000000004,5.7754948701733101833,0.13011580385434591873,1.6936603102132242157,-0.46698590846614835485,-15.781264086836736577
0.057000000000000044,5.7756261868292604784,0.13251820411204992562,1.6931891570829815743,-0.4753203168811077358,-15.781264086836736585
0.058000000000000045,5.775759907986333679,0.13492481877148976338,1.6927096696498552964,-0.4836545141218799599,-15.781264086836736587
0.059000000000000045,5.7758960378969633493,0.13733572391420579375,1.6922218481253254862,-0.49198849960547098541,-15.7812640868367365906
0.060000000000000046,5.7760345808897185092,0.13975099572983168784,1.6917256927213680526,-0.5003222729239360281,-15.781264086836736595
0.06100000000000005,5.7761755413694125106,0.14217071051765708188,1.6912212036502776408,-0.508655833848426494,-15.781264086836736598
0.06200000000000005,5.77631892381721347,0.1445949446881779665,1.6907083811244864908,-0.5169891823332872932,-15.781264086836736609
0.06300000000000004,5.776464732790756244,0.1470237747646348649,1.6901872253563791752,-0.52532231852020519616,-15.781264086836736616
0.06400000000000004,5.7766129729242559373,0.14945727738453886865,1.6896577365581031605,-0.5336552427424088881,-15.7812640868367366235
0.06500000000000004,5.7767636489286229334,0.15189552930118561208,1.6891199149413751443,-0.5419879555289213656,-15.781264086836736627
0.06600000000000004,5.776916765591579431,0.15433860738515727989,1.6885737607172831119,-0.5503204576088653137,-15.781264086836736634
0.06700000000000005,5.7770723277777774737,0.15678658862581275533,1.688019274096084063,-0.558652749915822091,-15.781264086836736636
0.06800000000000005,5.77723034042891847,0.15923955013276602963,1.6874564552869973492,-0.5669848335922449445,-15.781264086836736638
0.06900000000000005,5.7773908085638741817,0.16169756913735300723,1.6868853044979935737,-0.57531670999392706394,-15.781264086836736641
0.07000000000000005,5.777553737278809174,0.1641607229940868546,1.6863058219355789942,-0.58364838069452507926,-15.781264086836736648
0.07100000000000005,5.777719131747304716,0.1666290891821020545,1.6857180078045753744,-0.5919798474901385961,-15.781264086836736654
0.07200000000000005,5.777886997220484119,0.16910274530658734107,1.6851218623078952272,-0.60031111240394635447,-15.781264086836736655
0.07300000000000005,5.778057339027139504,0.17158176910020770604,1.6845173856463123942,-0.60864217769089958774,-15.7812640868367366565
0.07400000000000005,5.778230162573859983,0.17406623842451567922,1.6839045780182279023,-0.6169730458424731512,-15.781264086836736663
0.07500000000000005,5.7784054733451612486,0.1765562312713521024,1.6832834396194310402,-0.62530371959147497955,-15.781264086836736665
0.07600000000000005,5.7785832769036165587,0.17905182576423662879,1.6826539706428555965,-0.6336342019169144261,-15.78126408683673667
0.07700000000000005,5.7787635788899891043,0.18155310015974819587,1.6820161712783311982,-0.6419644960489300254,-15.781264086836736671
0.07800000000000006,5.7789463850233657584,0.1840601328488957334,1.6813700417123296941,-0.6502946054737772155,-15.781264086836736675
0.07900000000000006,5.779131701101292184,0.18657300235847938396,1.6807155821277065179,-0.65862453393887654423,-15.781264086836736677
0.08000000000000006,5.7793195329999093057,0.18909178735244252789,1.6800527927034369743,-0.66695428545792287964,-15.781264086836736686
0.08100000000000006,5.7795098866740911197,0.19161656663321491968,1.6793816736143473837,-0.6752838643160561327,-15.7812640868367366894
0.08200000000000006,5.7797027681575838544,0.19414741914304725834,1.6787022250308410265,-0.68361327507509399434,-15.7812640868367366955
0.08300000000000006,5.779898183563146451,0.1966844239653375296,1.6780144471186188227,-0.69194252257882717935,-15.781264086836736699
0.08400000000000006,5.7800961390826923725,0.19922766032594947257,1.6773183400383946853,-0.7002716119583776635,-15.781264086836736702
0.08500000000000006,5.7802966409874327255,0.20177720759452354041,1.6766139039456054832,-0.7086005486376203905,-15.781264086836736708
0.08600000000000006,5.780499695628020688,0.20433314528578073893,1.6759011389901155508,-0.71692933833866891684,-15.781264086836736709
0.08700000000000006,5.7807053094346972405,0.20689555306081974349,1.67518004531591568,-0.7252579870874254585,-15.781264086836736717
0.08800000000000006,5.780913488917438189,0.20946451072840771038,1.674450623060816529,-0.7335865012191957905,-15.781264086836736721
0.08900000000000007,5.781124240666102477,0.21204009824626521482,1.6737128723561363848,-0.74191488738436944746,-15.7812640868367367285
0.09000000000000007,5.7813375713505817774,0.21462239572234576366,1.6729667933263832113,-0.75024315255416566253,-15.781264086836736729
0.09100000000000007,5.781553487720951366,0.21721148341611034735,1.6722123860889309197,-0.7585713040264454766,-15.781264086836736738
0.09200000000000007,5.781771996607622261,0.21980744173979751156,1.6714496507536897923,-0.7668993494315904416,-15.781264086836736737
0.09300000000000007,5.7819931049214946376,0.22241035125968944587,1.670678587422770995,-0.77522729673844833494,-15.781264086836736746
0.09400000000000007,5.7822168196541124992,0.22502029269737460242,1.6698991961901451101,-0.7835551542603462945,-15.781264086836736756
0.09500000000000007,5.7824431478778196163,0.2276373469310073751,1.6691114771412946227,-0.7918829306611717785,-15.781264086836736761
0.09600000000000007,5.782672096745916722,0.2302615949965653852,1.6683154303528602904,-0.8002106349615217452,-15.781264086836736764
0.09700000000000007,5.7829036734928199607,0.23289311808910493742,1.6675110558922813315,-0.8085382765449204452,-15.781264086836736776
0.09800000000000007,5.7831378854342205945,0.23553199756401522569,1.6666983538174293596,-0.8168658651641062062,-15.781264086836736782
0.09900000000000007,5.783374739967245965,0.23817831493827188606,1.6658773241762359977,-0.82519341094738759234,-15.781264086836736791
0.10000000000000007,5.7836142445706217024,0.24083215189169050995,1.6650479670063141005,-0.8335209244050693065,-15.781264086836736788
0.10100000000000008,5.783856406804835199,0.24349359026818074891,1.6642102823345725157,-0.841848416435948204,-15.781264086836736794
0.10200000000000008,5.7841012343123003234,0.246162712077001658,1.6633642701768243158,-0.85017589833387977673,-15.781264086836736799
0.10300000000000008,5.784348734817523403,0.24883959949401894318,1.6625099305373884253,-0.8585033817944154639,-15.781264086836736804
0.10400000000000008,5.784598916127270459,0.25152433486296479413,1.6616472634086845774,-0.8668308789215111404,-15.781264086836736811
0.10500000000000008,5.784851786130735703,0.25421700069670100198,1.660776268770821525,-0.87515840223430712647,-15.781264086836736817
0.10600000000000008,5.785107352799711303,0.25691767967848607785,1.6598969465911784364,-0.8834859646739800615,-15.781264086836736817
0.10700000000000008,5.785365624188758412,0.2596264546632471064,1.6590092968239794034,-0.8918135796106669773,-15.781264086836736823
0.10800000000000008,5.785626608435379478,0.26234340867885708488,1.6581133194098609882,-0.9001412608504619041,-15.781264086836736827
0.10900000000000008,5.7858903137601918275,0.26506862492741851639,1.6572090142754327379,-0.90846902264248533774,-15.7812640868367368395
0.11000000000000008,5.7861567484671025427,0.26780218678655404288,1.6562963813328305929,-0.91679687968602689333,-15.781264086836736846
0.11100000000000008,5.7864259209434846286,0.27054417781070492162,1.6553754204792631155,-0.92512484713776146737,-15.781264086836736852
0.11200000000000009,5.7866978396603544863,0.2732946817324381655,1.6544461315965504663,-0.93345294061903922786,-15.781264086836736856
0.11300000000000009,5.786972513172550694,0.27605378246376318554,1.6535085145506560529,-0.94178117622324974755,-15.781264086836736863
0.11400000000000009,5.7872499501189141134,0.27882156409745879178,1.652562569191210777,-0.95010957052326059567,-15.78126408683673687
0.11500000000000009,5.7875301592224693264,0.28159811090841142616,1.6516082953510298065,-0.9584381405789306997,-15.7812640868367368785
0.11600000000000009,5.787813149290607417,0.28438350735496551797,1.6506456928456217959,-0.96676690394469878744,-15.781264086836736885
0.11700000000000009,5.788098929215270111,0.2871778380802868715,1.6496747614726904811,-0.97509587867724721805,-15.78126408683673689
0.11800000000000009,5.788387507973135284,0.28998118791374001189,1.648695501011628572,-0.9834250833432415111,-15.781264086836736898
0.11900000000000009,5.7886788946258038546,0.2927936418722804338,1.6477079112230038683,-0.9917545370271458796,-15.781264086836736908
0.12000000000000009,5.7889730983199880776,0.29561528516186271468,1.6467119918480375209,-1.0000842593391150747,-15.781264086836736917
0.1210000000000001,5.7892701282877012552,0.2984462031788654724,1.6457077426080743636,-1.0084142704229628492,-15.781264086836736918
0.1220000000000001,5.7895699938464488823,0.30128648151153416537,1.644695163204045238,-1.0167445909642073466,-15.7812640868367369245
0.1230000000000001,5.7898727043994212393,0.30413620594144274946,1.6436742533159212343,-1.0250752421981937259,-15.781264086836736932
0.1240000000000001,5.790178269435687462,0.3069954624449752262,1.6426450126021597706,-1.0334062459182943287,-15.781264086836736945
0.12500000000000008,5.7904866985303910993,0.30986433719482813206,1.6416074406991424326,-1.0417376244841867022,-15.781264086836736952
0.12600000000000008,5.7907980013449471884,0.3127429165615350388,1.6405615372206044982,-1.050069400830209791,-15.781264086836736962
0.12700000000000009,5.7911121876272408614,0.31563128711501415056,1.6395073017570560636,-1.0584015984737986126,-15.78126408683673697
0.12800000000000009,5.791429267211827515,0.3185295356261401033,1.6384447338751946988,-1.0667342415239977352,-15.7812640868367369705
0.1290000000000001,5.791749250020134565,0.3214377490683410882,1.6373738331173095468,-1.0750673546900538809,-15.7812640868367369835
0.1300000000000001,5.7920721460606648043,0.3243560146192224403,1.6362945990006767933,-1.0834009632900879786,-15.7812640868367369896
0.1310000000000001,5.7923979654292014094,0.32728441966221784982,1.6352070310169464223,-1.0917350932598469987,-15.781264086836736998
0.1320000000000001,5.792726718309014601,0.3302230517882693727,1.6341111286315201814,-1.1000697711615359004,-15.781264086836737004
0.1330000000000001,5.7930584149710700097,0.33317199879753743493,1.6330068912829206741,-1.1084050241927300369,-15.78126408683673701
0.1340000000000001,5.7933930657742387584,0.33613134870114204199,1.6318943183821514994,-1.1167408801953683592,-15.78126408683673702
0.1350000000000001,5.7937306811655093068,0.33910118972293642385,1.6307734093120483584,-1.1250773676648277741,-15.78126408683673702
0.1360000000000001,5.794071271680201088,0.34208161030131436307,1.6296441634266210438,-1.1334145157590790118,-15.781264086836737031
0.1370000000000001,5.7944148479421799646,0.34507269909105247257,1.6285065800503862361,-1.141752354307924371,-15.781264086836737043
0.1380000000000001,5.794761420664075547,0.34807454496518870616,1.6273606584776910176,-1.1500909138223177147,-15.78126408683673705
0.1390000000000001,5.795111000647500412,0.3510872370169384042,1.6262063979720270259,-1.1584302255037670971,-15.7812640868367370555
0.1400000000000001,5.795463598783271254,0.3541108645616491936,1.6250437977653351656,-1.166770321253820413,-15.781264086836737063
0.1410000000000001,5.7958192260516320097,0.3571455171387960807,1.623872857057300789,-1.1751112336836344706,-15.78126408683673707
0.1420000000000001,5.7961778935224790017,0.36019128451401809197,1.6226935750146392692,-1.1834529961236278953,-15.7812640868367370746
0.1430000000000001,5.796539612355588139,0.36324825668119783696,1.6215059507703718757,-1.1917956426332182874,-15.781264086836737084
0.1440000000000001,5.7969043938008442164,0.36631652386458538504,1.6203099834230918723,-1.2001392080106440621,-15.781264086836737089
0.1450000000000001,5.7972722491984723663,0.3693961765209678657,1.6191056720362207496,-1.2084837278028714182,-15.781264086836737094
0.1460000000000001,5.7976431899792716974,0.3724873053418862203,1.6178930156372545078,-1.2168292383155868878,-15.781264086836737104
0.1470000000000001,5.798017227664851178,0.3755900012559005513,1.6166720132169999053,-1.2251757766232759372,-15.781264086836737108
0.1480000000000001,5.79839437386786781,0.37870435543090553312,1.6154426637288005829,-1.2335233805793881,-15.781264086836737117
0.1490000000000001,5.7987746402922671395,0.38183045927649736622,1.6142049660877529822,-1.2418720888265891384,-15.781264086836737127
