t,phi1,v1,phi2,v2,energy
0.0,6.1908889829552311568,0.0,5.0753698044369137676,0.0,-23.019653949238929061
0.001,6.190888367385818844,-0.0012311495480784280916,5.075374660511868948,0.009712153041769145765,-23.019653949238929064
0.002,6.1908865206132412005,-0.0024624277775424811632,5.075389228755523232,0.019424343661506805001,-23.019653949238929064
0.003,6.1908834424444762726,-0.0036939633694441244436,5.075413509224245732,0.029136609442937443986,-23.019653949238929071
0.004,6.1908791325578213607,-0.0049258850041679703737,5.075447502011994559,0.038848987981297484642,-23.019653949238929073
0.005,6.190873590502893853,-0.0061583213610975187596,5.075491207250331217,0.04856151688909140715,-23.019653949238929082
0.006,6.190866815700632395,-0.0073914011182812961806,5.075544625108440744,0.058274233801848001537,-23.019653949238929084
0.007,6.1908588074432983903,-0.008625252952098860107,5.0756077557931576203,0.06798717638387681651,-23.019653949238929085
0.008,6.190849564894477835,-0.0098600055369266323,5.075680599548997424,0.077700382334024852774,-23.01965394923892909
0.009000000000000001,6.1908390870890834907,-0.0110957875448035249945,5.0757631566581942464,0.08741388939143354647,-23.019653949238929096
0.010000000000000002,6.190827372933357389,-0.012332727645096322159,5.0758554274407438676,0.09712773534129608687,-23.0196539492389291
0.011000000000000003,6.190814421204873669,-0.013570954504164776563,5.0759574122544526852,0.10684195802061511026,-23.019653949238929103
0.012000000000000004,6.190800230552541754,-0.014810596785026381693,5.0760691114949924043,0.116556595323960809685,-23.01965394923892911
0.013000000000000005,6.19078479949660986,-0.016051783147020775669,5.076190525595960482,0.12627168520922949765,-23.019653949238929122
0.014000000000000005,6.1907681264286688444,-0.017294642245473732104,5.0763216550289463344,0.13598726570340265609,-23.019653949238929123
0.015000000000000006,6.190750209611656383,-0.018539302731360690547,5.0764625003036033027,0.14570337490830650435,-23.019653949238929129
0.016000000000000007,6.1907310471798614932,-0.019785893250969776497,5.076613061967726376,0.15542005100637211304,-23.019653949238929134
0.017000000000000008,6.190710637138929388,-0.0210345424455642582,5.076773340607335677,0.16513733226639608706,-23.019653949238929132
0.01800000000000001,6.190688977365866672,-0.02228537895104438437,5.076943336846765708,0.17485525704930183774,-23.019653949238929132
0.01900000000000001,6.1906660656090468707,-0.02353853139760854372,5.077123051348760361,0.18457386381390145895,-23.01965394923892914
0.02000000000000001,6.1906418994882163034,-0.02479412840941368361,5.0773124848145736823,0.19429319112265821784,-23.019653949238929144
0.02100000000000001,6.1906164764945002966,-0.026052298604234921447,5.07751163798407641,0.20401327764744966558,-23.019653949238929148
0.022000000000000013,6.190589793990409733,-0.027313170593124278456,5.0777205116358682694,0.21373416217533136775,-23.019653949238929158
0.023000000000000013,6.1905618492098479473,-0.028576872980068461131,5.0779391065873960296,0.22345588361430124925,-23.019653949238929165
0.024000000000000014,6.190532639258117965,-0.029843534361645611295,5.0781674236950773327,0.23317848099906454157,-23.019653949238929172
0.025000000000000015,6.1905021611119300804,-0.031113283326680940889,5.0784054638544302816,0.2429019934967993143,-23.019653949238929182
0.026000000000000016,6.1904704116194097813,-0.032386248455901162627,5.0786532280002087956,0.25262646041292256634,-23.019653949238929184
0.027000000000000017,6.1904373875001060244,-0.033662558321587622384,5.078910717106543734,0.26235192119685684457,-23.01965394923892919
0.028000000000000018,6.1904030853449998526,-0.034942341487228033705,5.0791779321870897837,0.27207841544779735112,-23.019653949238929191
0.02900000000000002,6.190367501616513363,-0.036225726507166708977,5.0794548742951781176,0.28180598292047949154,-23.019653949238929195
0.03000000000000002,6.190330632648519027,-0.03751284192625317571,5.0797415445239748155,0.29153466353094680926,-23.019653949238929198
0.03100000000000002,6.1902924746463493604,-0.038803816279489060135,5.0800379440066450597,0.30126449736231924214,-23.0196539492389292
0.03200000000000002,6.190253023686806949,-0.040098778091673113536,5.0803440739165230938,0.31099552467056162884,-23.019653949238929208
0.03300000000000002,6.1902122757181748305,-0.041397855877044249926,5.0806599354672879513,0.3207277858902523827,-23.019653949238929208
0.03400000000000002,6.1901702265602272326,-0.042701178138922456344,5.080985529913144956,0.3304613216403522419,-23.019653949238929212
0.035000000000000024,6.1901268719042406735,-0.044008873369347429576,5.0813208585490129868,0.34019617272997299405,-23.019653949238929219
0.036000000000000025,6.1900822073130054237,-0.045321070048714785233,5.0816659227107175132,0.34993238016414606305,-23.019653949238929226
0.037000000000000026,6.190036228220837331,-0.04663789664540967689,5.0820207237751893986,0.35966998514959083508,-23.019653949238929226
0.03800000000000003,6.189988929933590018,-0.047959481615437654605,5.0823852631606694754,0.36940902910048258948,-23.019653949238929233
0.03900000000000003,6.189940307628667447,-0.04928595340205258321,5.08275954232691888,0.37914955364421988837,-23.019653949238929236
0.04000000000000003,6.189890356355036858,-0.050617440435381431582,5.0831435627754351634,0.38889160062719126603,-23.01965394923892924
0.04100000000000003,6.189839071033242085,-0.051954071132045734683,5.0835373260496741613,0.39863521212054104764,-23.01965394923892924
0.04200000000000003,6.189786446455417252,-0.053295973894779520167,5.0839408337352776346,0.4083804304259341127,-23.019653949238929238
0.04300000000000003,6.1897324772853008533,-0.05464327711204348106,5.0843540874603066716,0.41812729808131940556,-23.019653949238929247
0.04400000000000003,6.189677158058250222,-0.055996109157635165656,5.0847770888954808505,0.42787585786669198027,-23.019653949238929252
0.04500000000000003,6.189620483181256389,-0.05735459839029494431,5.085209839754423169,0.43762615280985335412,-23.019653949238929259
0.046000000000000034,6.189562446932959339,-0.058718873153307501894,5.0856523417939107287,0.4473782261921699274,-23.019653949238929264
0.047000000000000035,6.1895030434636636673,-0.06008906177409859249,5.0861045968141311785,0.4571321215543292119,-23.019653949238929267
0.048000000000000036,6.1894422667953546443,-0.061465292563826780782,5.0865666066589449133,0.4668878827020935947,-23.01965394923892927
0.04900000000000004,6.189380110821714686,-0.06284769381696988211,5.0870383732161530248,0.47664555371205134685,-23.019653949238929278
0.05000000000000004,6.1893165693081402456,-0.06423639381090579975,5.087519898417770999,0.48640517893736456834,-23.01965394923892928
0.05100000000000004,6.189251635891759126,-0.065631520805487444684,5.088011184240308166,0.496166803013513745,-23.019653949238929281
0.05200000000000004,6.1891853040814482183,-0.067033203042611409057,5.0885122327050528877,0.5059304708640385718,-23.019653949238929283
0.05300000000000004,6.1891175672578516787,-0.06844156874578004994,5.089023045878363486,0.51569622770627467946,-23.019653949238929288
0.05400000000000004,6.1890484186733995416,-0.06985674611965662526,5.0895436258719649043,0.525464119057085882,-23.01965394923892929
0.05500000000000004,6.188977851452326786,-0.071278863349613107945,5.090073974843251101,0.53523419073859154055,-23.019653949238929292
0.05600000000000004,6.188905858590692857,-0.072708048601270288843,5.0906140949955931666,0.54500648888388861913,-23.019653949238929295
0.057000000000000044,6.188832432956401648,-0.07414443002002976205,5.091163988578653158,0.55478105994276798635,-23.019653949238929304
0.058000000000000045,6.188757567289221959,-0.07558813573059736939,5.0917236578887036503,0.56455795068742449375,-23.019653949238929306
0.059000000000000045,6.1886812542008084346,-0.07703929383649766332,5.0922931052689529917,0.57433720821816033886,-23.019653949238929307
0.060000000000000046,6.1886034861747229907,-0.078498032419578929105,5.092872333109876261,0.5841188799690811969,-23.019653949238929309
0.06100000000000005,6.1885242555664567426,-0.079964479539508288634,5.093461343849551914,0.5939030137137845804,-23.01965394923892932
0.06200000000000005,6.1884435546034524435,-0.081438763233256388616,5.094060139974004117,0.60368965757103986103,-23.019653949238929323
0.06300000000000004,6.1883613753851274436,-0.082921011514571156234,5.0946687240175507552,0.6134788600104593609,-23.019653949238929328
0.06400000000000004,6.1882777098828971795,-0.084411352373440084406,5.0952870985631571066,0.62327066985815989355,-23.019653949238929335
0.06500000000000004,6.18819254994019921,-0.08590991377554048775,5.0959152662427951736,0.63306513630241410795,-23.019653949238929335
0.06600000000000004,6.1881058872725178037,-0.0874168236616771484,5.0965532297378086605,0.6428623088992909594,-23.01965394923892934
0.06700000000000005,6.188017713467409102,-0.08893220994720674802,5.0972009917792835835,0.6526622375782846001,-23.019653949238929339
0.06800000000000005,6.1879280199845268567,-0.09045620052144845932,5.097858555148424507,0.66246497264793095507,-23.019653949238929342
0.06900000000000005,6.187836798155648772,-0.091988923247080046,5.0985259226769363877,0.67227056480141121283,-23.019653949238929342
0.07000000000000005,6.187744039184703451,-0.0935305059595187955,5.0992030972474120154,0.68207906512214143283,-23.019653949238929345
0.07100000000000005,6.187649734147797974,-0.09508107646628658314,5.0998900817937250366,0.6918905250893474338,-23.019653949238929345
0.07200000000000005,6.187553873993246118,-0.09664076254635833995,5.1005868793014285463,0.70170499658362409475,-23.019653949238929349
0.07300000000000005,6.187456449541597237,-0.09820969194949316937,5.101293492808159229,0.7115225318924781647,-23.019653949238929354
0.07400000000000005,6.1873574514856658187,-0.09978799239554732973,5.1020099254040470332,0.72134318371585364014,-23.019653949238929356
0.07500000000000005,6.187256870390561739,-0.10137579157376827085,5.1027361802321303677,0.7311670051716387312,-23.019653949238929352
0.07600000000000005,6.187154696693721233,-0.102973217142068882935,5.1034722604887767885,0.74099404980115339856,-23.019653949238929356
0.07700000000000005,6.1870509207049385995,-0.1045803967262810856,5.104218169424109165,0.75082437157461640395,-23.01965394923892936
0.07800000000000006,6.1869455326063986654,-0.10619745791938785293,5.1049739103424373056,0.7606580248965907743,-23.019653949238929358
0.07900000000000006,6.1868385224527100283,-0.10782452828073273817,5.1057394866026950143,0.7704950646114065382,-23.019653949238929358
0.08000000000000006,6.1867298801709390984,-0.10946173533520592771,5.106514901618882559,0.780335546008559548,-23.019653949238929361
0.08100000000000006,6.186619595560644972,-0.11110920657240581972,5.107300158860514526,0.7901795248280851577,-23.019653949238929365
0.08200000000000006,6.186507658293915152,-0.112767069445775086926,5.1080952618530730373,0.80002705726590547835,-23.019653949238929371
0.08300000000000006,6.1863940579154021444,-0.11443545137171014636,5.108900214178466296,0.80987819997914888454,-23.019653949238929373
0.08400000000000006,6.1862787838423609664,-0.116114479728642921067,5.1097150194754924436,0.8197330100914403992,-23.019653949238929378
0.08500000000000006,6.186161825364687576,-0.1178042818560937397,5.110539681440308688,0.82959154519816152764,-23.019653949238929385
0.08600000000000006,6.186043171644958275,-0.11950498505369417977,5.111374203826905675,0.83945386337167806506,-23.019653949238929387
0.08700000000000006,6.185922811718470094,-0.12121671658017861905,5.1122185904475870763,0.84932002316653434324,-23.019653949238929389
0.08800000000000006,6.1858007344932822128,-0.12293960365234321674,5.1130728451734543468,0.8591900836246123292,-23.019653949238929392
0.08900000000000007,6.1856769287502584294,-0.1246737734439710025,5.113936971934896628,0.8690641042802539296,-23.019653949238929396
0.09000000000000007,6.185551383143110727,-0.12641935308472170581,5.114810974722085754,0.87894214516534479697,-23.019653949238929401
0.09100000000000007,6.1854240861984439667,-0.12817646965898491181,5.1156948575854763192,0.8888242668143578717,-23.019653949238929403
0.09200000000000007,6.1852950263158017457,-0.12994525020469508173,5.11658862463631077,0.89871053026935483277,-23.019653949238929406
0.09300000000000007,6.1851641917677134654,-0.13172582171210692683,5.117492280047129477,0.90860099708494356343,-23.01965394923892941
0.09400000000000007,6.185031570699742637,-0.13351831112252957323,5.1184058280522857403,0.9184957293331896741,-23.019653949238929415
0.09500000000000007,6.184897151130536478,-0.13532284532701790366,5.119329272948465682,0.9283947896084800541,-23.01965394923892942
0.09600000000000007,6.1847609209518768416,-0.13713955116501940736,5.1202626190952129797,0.9382982410323363558,-23.01965394923892942
0.09700000000000007,6.184622867928732517,-0.13896855542297481419,5.1212058709154583878,0.94820614725817623896,-23.019653949238929429
0.09800000000000007,6.184482979699312957,-0.14080998483287073171,5.1221590328960539874,0.9581185724760201321,-23.01965394923892943
0.09900000000000007,6.1843412437751234777,-0.14266396607074244541,5.1231221095883121225,0.9680355814171411876,-23.019653949238929429
0.10000000000000007,6.1841976475410219785,-0.14453062575512498107,5.1240951056085489524,0.9779572393586560298,-23.01965394923892943
0.10100000000000008,6.1840521782552772385,-0.14641009044545046632,5.125078025638632564,0.98788361212805381395,-23.019653949238929432
0.10200000000000008,6.1839048230496288456,-0.14830248664038976412,5.126070874426535583,0.9978147661076610275,-23.019653949238929434
0.10300000000000008,6.183755568929348809,-0.15020794077613628438,5.127073656786892215,1.0077507682390393828,-23.019653949238929434
0.10400000000000008,6.1836044027733049226,-0.15212657922462981234,5.1280863776015596523,1.0176916860273140563,-23.019653949238929441
0.10500000000000008,6.1834513113340259286,-0.15405852829171812191,5.129109041820183769,1.0276375875454294432,-23.019653949238929441
0.10600000000000008,6.1832962812377685593,-0.15600391421525406995,5.1301416544607690387,1.0375885414383294952,-23.01965394923892944
0.10700000000000008,6.1831392989845865085,-0.15796286316312579343,5.131184220610252592,1.0475446169270596197,-23.01965394923892944
0.10800000000000008,6.182980350948401411,-0.15993550123121755475,5.1322367454250823345,1.0575058838127870118,-23.019653949238929444
0.10900000000000008,6.1828194233770758965,-0.16192195444129870166,5.1332992341317990417,1.067472412480736191,-23.019653949238929446
0.11000000000000008,6.182656502392488789,-0.16392234873883812785,5.1343716920276223498,1.0774442739040364082,-23.019653949238929444
0.11100000000000008,6.182491573990612534,-0.16593680999074153567,5.1354541244810405468,1.0874215396474774773,-23.019653949238929444
0.11200000000000009,6.182324624041592926,-0.16796546398300871806,5.1365465369324040676,1.0974042818711704761,-23.019653949238929443
0.11300000000000009,6.182155638289831219,-0.17000843641830798721,5.1376489348945226098,1.1073925733341096428,-23.01965394923892944
0.11400000000000009,6.1819846023540687085,-0.17206585291346478734,5.1387613239532657517,1.1173864873976316764,-23.019653949238929444
0.11500000000000009,6.1818115017274738645,-0.17413783899686143501,5.1398837097681669794,1.1273860980287685262,-23.019653949238929444
0.11600000000000009,6.181636321777732114,-0.17622452010574483421,5.141016098073031016,1.1373914798034896305,-23.019653949238929444
0.11700000000000009,6.181459047747138363,-0.17832602158343891443,5.142158494676544331,1.1474027079098294308,-23.019653949238929446
0.11800000000000009,6.181279664752692352,-0.18044246867645843794,5.143310905462888718,1.1574198581508958591,-23.019653949238929446
0.11900000000000009,6.1810981577861969553,-0.18257398653152071737,5.1444733363923578237,1.1674430069477553528,-23.019653949238929446
0.12000000000000009,6.1809145117143595096,-0.18472070019245167702,5.1456457935019764946,1.1774722313421898145,-23.019653949238929446
0.1210000000000001,6.1807287112788963034,-0.18688273459698258007,5.1468282829061228157,1.1875076089993207825,-23.019653949238929451
0.1220000000000001,6.1805407410966403175,-0.1890602145734336294,5.1480208107971527046,1.1975492182100959337,-23.019653949238929448
0.1230000000000001,6.180350585659652345,-0.1912532648372805324,5.149223383446026924,1.2075971378936328793,-23.01965394923892945
0.1240000000000001,6.180158229335335599,-0.19346200998759999889,5.150436007202940359,1.2176514475994150599,-23.019653949238929451
0.12500000000000008,6.1799636563665539457,-0.19568657450339001694,5.151658688497953419,1.2277122275093343774,-23.019653949238929453
0.12600000000000008,6.179766850871753873,-0.19792708273976062313,5.152891433841625402,1.2377795584395750374,-23.019653949238929457
0.12700000000000009,6.1795677968450903397,-0.20018365892399075194,5.154134249825649658,1.2478535218423328968,-23.019653949238929457
0.12800000000000009,6.1793664781565566376,-0.20245642715144661396,5.1553871431234903934,1.2579341998073644368,-23.019653949238929458
0.1290000000000001,6.179162878552118401,-0.20474551138135691198,5.156650120491020929,1.2680216750633592939,-23.019653949238929457
0.1300000000000001,6.178956981653851922,-0.20705103543244006206,5.157923188767163247,1.278116030979130094,-23.019653949238929457
0.1310000000000001,6.1787487709600869066,-0.2093731229783784377,5.1592063548745286275,1.2882173515646131399,-23.019653949238929453
0.1320000000000001,6.1785382298455538423,-0.21171189754313450435,5.160499625820059193,1.2983257214716732979,-23.019653949238929453
0.1330000000000001,6.178325341561536127,-0.21406748249610355526,5.161803008695670154,1.3084412259947062297,-23.019653949238929448
0.1340000000000001,6.17811008923602713,-0.21644000104709759838,5.1631165106788925565,1.3185639510710308945,-23.019653949238929444
0.1350000000000001,6.177892455873892355,-0.21882957624115477991,5.1644401390335163073,1.3286939832810650356,-23.019653949238929444
0.1360000000000001,6.1776724243570368842,-0.2212363309531685595,5.1657739011102332704,1.3388314098482761335,-23.019653949238929444
0.1370000000000001,6.1774499774445782866,-0.22366038788233067768,5.167117804347280194,1.3489763186389000813,-23.019653949238929441
0.1380000000000001,6.1772250977730251784,-0.2261018695463817764,5.1684718562710812413,1.3591287981614195968,-23.019653949238929441
0.1390000000000001,6.1769977678564616298,-0.22856089827566334901,5.1698360644968898692,1.3692889375657941411,-23.019653949238929441
0.1400000000000001,6.176767970086737625,-0.23103759620696450588,5.1712104367294298157,1.3794568266424328595,-23.019653949238929436
0.1410000000000001,6.1765356867336657773,-0.23353208527715684654,5.172594980763534927,1.3896325558209018058,-23.019653949238929437
0.1420000000000001,6.1763008999452245215,-0.23604448721661052863,5.17398970448478755,1.3998162161683564367,-23.019653949238929429
0.1430000000000001,6.1760635917477680022,-0.23857492354238441728,5.1753946158701552255,1.4100078993876900943,-23.019653949238929425
0.1440000000000001,6.175823744046242883,-0.24112351555118298649,5.176809722988625372,1.4202076978153889075,-23.01965394923892942
0.1450000000000001,6.175581338624412327,-0.2436903843120724256,5.1782350340018376855,1.4304157044190832554,-23.019653949238929415
0.1460000000000001,6.175336357145087378,-0.24627565065894817993,5.1796705571647139264,1.4406320127947856365,-23.019653949238929413
0.1470000000000001,6.175088781150366003,-0.24887943518274592406,5.1811163008260847857,1.4508567171638044738,-23.019653949238929411
0.1480000000000001,6.174838592061880059,-0.25150185822338772895,5.1825722734293135,1.4610899123693230796,-23.019653949238929404
0.1490000000000001,6.1745857711810504444,-0.25414303986145494085,5.184038483512915872,1.4713316938726326685,-23.0196539492389294
