t,phi1,v1,phi2,v2,energy
0.0,3.9741120657690767182,0.0,3.861660674165453777,0.0,20.579318030759345308
0.001,3.9741160571729802805,0.007982815335700501101,3.8616599425043893362,-0.001463328612199459565,20.579318030759345313
0.002,3.9741280314298617733,0.015965721011950384346,3.861657747482297265,-0.0029267350199980218852,20.579318030759345324
0.003,3.9741479886752272685,0.0239488073566265892,3.8616540889824926591,-0.0043902969963433648605,20.57931803075934533
0.004,3.974175929134899098,0.031932164672259230416,3.8616489668105384316,-0.005854092268876946577,20.579318030759345338
0.005,3.9742118531249841682,0.03991588322335333863,3.861642380694301949,-0.007318198497272472123,20.579318030759345338
0.006,3.9742557610518295923,0.047900053223704788264,3.861634330284034334,-0.008782693250564258367,20.57931803075934534
0.007,3.9743076534119656379,0.055884764823708481643,3.8616248151524724455,-0.010247653984462139259,20.579318030759345346
0.008,3.9743675307920359747,0.06387010809765686351,3.8616138347949635545,-0.011713158018649562615,20.579318030759345353
0.009000000000000001,3.9744353938687152171,0.07185617303102684715,3.8616013886296127267,-0.01317928251406154001,20.57931803075934536
0.010000000000000002,3.974511243408613747,0.079843049507753241514,3.8615874759974529449,-0.0146461044501391241,20.579318030759345367
0.011000000000000003,3.9745950802681698011,0.08783082729748677807,3.8615720961626379838,-0.016113700602057102498,20.579318030759345372
0.012000000000000004,3.9746869053935288093,0.09581959604283484763,3.8615552483126580768,-0.01758214751792161451,20.579318030759345378
0.013000000000000005,3.9747867198204099638,0.10380944524658306926,3.8615369315585783986,-0.019051521495934416022,20.579318030759345383
0.014000000000000005,3.9748945246739599989,0.111800464258895827376,3.8615171449353004028,-0.020521898561520539309,20.579318030759345392
0.015000000000000006,3.975010321168594162,0.119792742264493928486,3.861495887401846052,-0.021993354444416117995,20.579318030759345393
0.016000000000000007,3.9751341106078243463,0.12778636826980754536,3.861473157841664979,-0.023465964555713173167,20.579318030759345404
0.017000000000000008,3.9752658943840743682,0.13578143109010263455,3.8614489550629646291,-0.02493980396485818454,20.579318030759345412
0.01800000000000001,3.975405673978482353,0.14377801933657903283,3.8614232777990634261,-0.026414947376601300769,20.579318030759345418
0.01900000000000001,3.9755534509606902057,0.1517762214034384588,3.8613961247087670156,-0.02789146910789307535,20.579318030759345431
0.02000000000000001,3.9757092269886201339,0.15977612545492066843,3.8613674943767676403,-0.029369443064725649328,20.579318030759345433
0.02100000000000001,3.9758730038082381892,0.16777781941230603715,3.861337385314066701,-0.03084894271891533883,20.579318030759345444
0.022000000000000013,3.9760447832533047962,0.17578139094088286664,3.8613057959584205661,-0.03233004108482362488,20.579318030759345449
0.023000000000000013,3.9762245672451122266,0.18378692743687774063,3.8612727246748096957,-0.03381281069601358433,20.579318030759345452
0.024000000000000014,3.9764123577922089881,0.19179451601434728356,3.8612381697559311359,-0.035297323581838844783,20.57931803075934546
0.025000000000000015,3.9766081569901110832,0.19980424349202970463,3.8612021294227144652,-0.036783651243962192712,20.579318030759345471
0.026000000000000016,3.9768119670210000998,0.20781619638015454207,3.861164601824861257,-0.038271864632801012466,20.579318030759345478
0.027000000000000017,3.9770237901534080881,0.21583046086720905505,3.8611255850414081317,-0.039762034123896785183,20.579318030759345485
0.028000000000000018,3.977243628741889184,0.22384712280665974524,3.8610850770813134822,-0.041254229494205929992,20.579318030759345492
0.02900000000000002,3.9774714852266779292,0.23186626770362752664,3.8610430758840679464,-0.042748519898309326038,20.579318030759345497
0.03000000000000002,3.9777073621333342438,0.23988798070151509918,3.8609995793203287136,-0.044244973844537912234,20.579318030759345508
0.03100000000000002,3.9779512620723750014,0.24791234656858512241,3.8609545851925777464,-0.045743659171011822858,20.579318030759345516
0.03200000000000002,3.9782031877388921567,0.255939449684487825,3.8609080912358040107,-0.047244643021590580426,20.579318030759345522
0.03300000000000002,3.978463141912157375,0.26396937402673673008,3.8608600951182097977,-0.04874799182173193385,20.579318030759345532
0.03400000000000002,3.9787311274552131124,0.2720022031571312197,3.8608105944419412354,-0.05025377125425699826,20.579318030759345542
0.035000000000000024,3.9790071473144500898,0.28003802020812470873,3.8607595867438430828,-0.05176204623501942463,20.579318030759345548
0.036000000000000025,3.9792912045191711071,0.28807690786913724585,3.860707069496237904,-0.053272880888476401305,20.579318030759345555
0.037000000000000026,3.979583302181141144,0.29611894837281140877,3.8606530401077297201,-0.054786338523159366337,20.57931803075934556
0.03800000000000003,3.9798834434941236845,0.304164223481210413,3.8605974959240322425,-0.05630248160704238926,20.579318030759345567
0.03900000000000003,3.9801916317334032145,0.31221281447195740603,3.8605404342288217898,-0.057821371742806263084,20.579318030759345577
0.04000000000000003,3.980507870255293825,0.3202648021243149738,3.8604818522446149923,-0.05934306964299643258,20.579318030759345588
0.04100000000000003,3.9808321624966338669,0.32832026670520394332,3.860421747133671394,-0.060867635105072972904,20.579318030759345595
0.04200000000000003,3.981164511974266591,0.3363792879551606244,3.8603601159989210587,-0.062395126986350923278,20.579318030759345603
0.04300000000000003,3.981504922284506719,0.3444419450742316933,3.8602969558849172908,-0.063925603178829374606,20.579318030759345607
0.04400000000000003,3.9818533971025928734,0.35250831670780598376,3.8602322637788145834,-0.06545912058390780618,20.579318030759345612
0.04500000000000003,3.9822099401821258082,0.36057848093238251607,3.860166036611371908,-0.06699573508698826665,20.57931803075934562
0.046000000000000034,3.9825745553544923793,0.36865251524127415974,3.8600982712579814575,-0.068535501531962096905,20.57931803075934563
0.047000000000000035,3.9829472465282751798,0.37673049653024639504,3.8600289645397229644,-0.07007847369557999836,20.579318030759345636
0.048000000000000036,3.9833280176886477868,0.38481250108309070793,3.8599581132244437033,-0.071624704261704358896,20.579318030759345645
0.04900000000000004,3.9837168728967555463,0.39289860455713222578,3.8598857140278643035,-0.0731742447954428606,20.579318030759345648
0.05000000000000004,3.9841138162890818324,0.40098888196867127522,3.8598117636147104865,-0.07472714571716250846,20.579318030759345652
0.05100000000000004,3.9845188520767997166,0.4090834076783586201,3.8597362585998708495,-0.07628345627638333753,20.57931803075934566
0.05200000000000004,3.9849319845451089777,0.4171822553765042156,3.8596591955495808163,-0.07784322452555117711,20.579318030759345673
0.05300000000000004,3.985353218052558388,0.4252854980683193954,3.859580570982632875,-0.07940649729368897563,20.579318030759345681
0.05400000000000004,3.985782557030353208,0.43339320805909249104,3.8595003813716132273,-0.08097332015992631724,20.579318030759345688
0.05500000000000004,3.9862200059816478223,0.44150545693929796722,3.8594186231441649664,-0.082543737426906892684,20.579318030759345699
0.05600000000000004,3.9866655694808234545,0.44962231556963924437,3.8593352926842779118,-0.0841177920940738213,20.579318030759345707
0.057000000000000044,3.9871192521727508889,0.4577438540660254676,3.859250386333605216,-0.085695525830832858715,20.579318030759345712
0.058000000000000045,3.9875810587720381373,0.4658701417844825732,3.8591639003928068724,-0.08727697894959366622,20.57931803075934572
0.059000000000000045,3.9880509940622629846,0.47400124730599909676,3.8590758311229202415,-0.0888621903786894619,20.579318030759345725
0.060000000000000046,3.9885290628951903466,0.48213723842130726212,3.8589861747467577176,-0.09045119763517552199,20.579318030759345733
0.06100000000000005,3.9890152701899743782,0.49027818211559998928,3.8588949274503316583,-0.09204403679750715175,20.57931803075934574
0.06200000000000005,3.9895096209323452658,0.4984241445531845571,3.858802085384306694,-0.09364074247809790053,20.579318030759345749
0.06300000000000004,3.9900121201737806427,0.5065751910620737611,3.8587076446654795417,-0.09524134779575895317,20.579318030759345758
0.06400000000000004,3.990522773030661564,0.51473138611851550927,3.8586116013782864361,-0.09684588434802079217,20.579318030759345765
0.06500000000000004,3.9910415846834129815,0.52289279333146190587,3.8585139515763382985,-0.09845438218333838994,20.579318030759345773
0.06600000000000004,3.991568560375628658,0.53105947542697898165,3.8584146912839837565,-0.100066869773181359,20.579318030759345784
0.06700000000000005,3.9921037054131804614,0.53923149423259834163,3.8583138164979001335,-0.10168337398401066027,20.579318030759345792
0.06800000000000005,3.9926470251633119826,0.54740891066161211103,3.8582113231887125134,-0.103303920049143645066,20.579318030759345801
0.06900000000000005,3.99319852505371642,0.5555917846973126796,3.8581072073026409994,-0.10492853154050938552,20.579318030759345811
0.07000000000000005,3.9937582105715986784,0.56378017537717885937,3.8580014647631762686,-0.106557230340296430724,20.579318030759345813
0.07100000000000005,3.994326087262721625,0.5719741407770101922,3.8578940914727835332,-0.10819003661249531193,20.579318030759345824
0.07200000000000005,3.9949021607304364579,0.58017373799501126443,3.8577850833146350089,-0.10982696877433830962,20.579318030759345834
0.07300000000000005,3.9954864366346971333,0.588379023135828011,3.8576744361543709968,-0.11146804346763918827,20.579318030759345837
0.07400000000000005,3.996078920691058804,0.59659005129453811857,3.857562145841889671,-0.113113275530035801046,20.57931803075934585
0.07500000000000005,3.9966796186696602303,0.604806876540597763,3.8574482082131656738,-0.11476267796613866633,20.579318030759345856
0.07600000000000005,3.997288536394190113,0.6130295519017470518,3.8573326190920976062,-0.11641626191858882152,20.579318030759345865
0.07700000000000005,3.9979056797408373146,0.6212581293478766696,3.8572153742923845042,-0.118074036639028465774,20.579318030759345876
0.07800000000000006,3.998531054637224927,0.62949265977485836543,3.8570964696194313893,-0.11973600945898811354,20.579318030759345884
0.07900000000000006,3.9991646670613281557,0.63773319298834205257,3.8569759008722839673,-0.12140218576069419379,20.57931803075934589
0.08000000000000006,3.9998065230403759814,0.64597977768752243435,3.8568536638455925628,-0.123072568947801246456,20.579318030759345896
0.08100000000000006,4.000456628649736578,0.65423246144887820886,3.8567297543316053524,-0.124747160416053087105,20.579318030759345902
0.08200000000000006,4.0011149900117864557,0.6624912907098870491,3.856604168122190974,-0.12642595952387753394,20.57931803075934591
0.08300000000000006,4.0017816132947633075,0.6707563107527196998,3.8564769010108905715,-0.12810896356291951679,20.57931803075934593
0.08400000000000006,4.0024565047116025455,0.6790275656879166796,3.8563479487949993345,-0.12979616772851761731,20.579318030759345935
0.08500000000000006,4.0031396705187574977,0.68730509843805122556,3.8562173072776775877,-0.13148756509012932085,20.579318030759345947
0.08600000000000006,4.0038311170150032727,0.6955889507213822674,3.8560849722700914792,-0.13318314656171049579,20.579318030759345954
0.08700000000000006,4.004530850540224266,0.7038791630355013727,3.8559509395935833086,-0.13488290087205485376,20.579318030759345966
0.08800000000000006,4.005238877474185317,0.71217577464097775523,3.855815205081871535,-0.13658681453509938434,20.579318030759345976
0.08900000000000007,4.00595520423528651,0.72047882354500559804,3.8556777645832804925,-0.1382948718202020009,20.579318030759345983
0.09000000000000007,4.006679837279301623,0.72878834648505809614,3.8555386139629998384,-0.14000705472239788015,20.579318030759345985
0.09100000000000007,4.0074127830981002415,0.73710437891255278553,3.8553977491053737553,-0.14172334293264122562,20.579318030759345987
0.09200000000000007,4.0081540482183535394,0.745426954976532883,3.8552551659162199145,-0.14344371380803943557,20.579318030759345994
0.09300000000000007,4.0089036392002237556,0.75375610750736952336,3.8551108603251782062,-0.145168142342086909,20.579318030759346002
0.09400000000000007,4.0096615626360373828,0.7620918680004899438,3.8549648282880892324,-0.14689660113490597728,20.57931803075934601
0.09500000000000007,4.0104278251489421008,0.77043426660013682714,3.8548170657894025536,-0.14862906036350270616,20.57931803075934602
0.09600000000000007,4.011202433391547486,0.77878333208316418226,3.854667568844614667,-0.15036548775204557088,20.579318030759346023
0.09700000000000007,4.011985394044549539,0.78713909184287530357,3.8545163335027366927,-0.15210584854217526757,20.579318030759346035
0.09800000000000007,4.012776713815339071,0.79550157187290852025,3.8543633558487917304,-0.15385010546335418538,20.579318030759346046
0.09900000000000007,4.013576399436594005,0.80387079675117661064,3.8542086320063418427,-0.15559821870326432691,20.57931803075934606
0.10000000000000007,4.014384457664855646,0.81224678962386592654,3.8540521581400446131,-0.15735014587826272874,20.579318030759346068
0.10100000000000008,4.0152008952790889775,0.82062957218950143977,3.8538939304582392172,-0.15910584200390369885,20.579318030759346072
0.10200000000000008,4.0160257190792270653,0.82901916468308409154,3.8537339452155619302,-0.16086525946553745344,20.579318030759346073
0.10300000000000008,4.0168589358846996345,0.83741558586030699526,3.8535721987155909984,-0.16262834798899500273,20.579318030759346073
0.10400000000000008,4.0177005525329459036,0.8458188529818572102,3.8534086873135207753,-0.16439505461136940215,20.579318030759346084
0.10500000000000008,4.0185505758779117703,0.85422898179780997363,3.8532434074188650246,-0.16616532365190375223,20.579318030759346089
0.10600000000000008,4.019409012788531435,0.86264598653212244754,3.8530763554981892793,-0.16793909668299659783,20.579318030759346101
0.10700000000000008,4.020275870147193576,0.87106987986723420316,3.8529075280778721279,-0.16971631250133564485,20.579318030759346108
0.10800000000000008,4.021151154848192178,0.8795006729287818348,3.8527369217468953033,-0.17149690709917097812,20.57931803075934612
0.10900000000000008,4.022034873796162138,0.88793837527043526154,3.8525645331596624198,-0.17328081363573923044,20.579318030759346134
0.11000000000000008,4.0229270339044997692,0.8963829948588634406,3.8523903590388462086,-0.17506796240885041774,20.579318030759346137
0.11100000000000008,4.02382764209376834,0.90483453805883738165,3.8522143961782640764,-0.1768582808266494183,20.579318030759346146
0.11200000000000009,4.024736705290088789,0.91329300961847851437,3.8520366414457818144,-0.17865169337956433642,20.579318030759346148
0.11300000000000009,4.0256542304235157603,0.9217584126546606248,3.8518570917862452584,-0.18044812161245425105,20.579318030759346153
0.11400000000000009,4.0265802244263991278,0.93023074863857373515,3.8516757442244396953,-0.18224748409696910802,20.579318030759346169
0.11500000000000009,4.027514694231731162,0.9387100173814584613,3.8514925958680767991,-0.1840496964041347704,20.579318030759346177
0.11600000000000009,4.0284576467714795223,0.9471962170205195393,3.851307643910808864,-0.18585467107717649442,20.579318030759346183
0.11700000000000009,4.0294090889749062546,0.9556893440050273643,3.851120885635270088,-0.18766231760459434883,20.57931803075934619
0.11800000000000009,4.030369027766872992,0.96418939308261654084,3.850932318416144652,-0.18947254239350434195,20.579318030759346191
0.11900000000000009,4.0313374700661325518,0.9726963572857905887,3.8507419397232613152,-0.19128524874325926428,20.579318030759346195
0.12000000000000009,4.032314422783607146,0.9812102279186420972,3.850549747124714248,-0.19310033681936349311,20.579318030759346209
0.1210000000000001,4.0332998928206534265,0.9897309945437977636,3.8503557382900097936,-0.1949177036276962409,20.579318030759346212
0.1220000000000001,4.0342938870673145857,0.9982586449695978886,3.8501599109932388484,-0.1967372429890579591,20.579318030759346219
0.1230000000000001,4.0352964124005597625,1.0067931652375200412,3.8499622631162745267,-0.1985588455140548341,20.579318030759346224
0.1240000000000001,4.0363074756825109974,1.0153345396098567348,3.8497627926519947664,-0.20038239857833653163,20.579318030759346235
0.12500000000000008,4.037327083758657995,1.0238827505576570846,3.8495614977075295147,-0.20220778629820255992,20.579318030759346242
0.12600000000000008,4.0383552434560609653,1.0324377787489425392,3.8493583765075321135,-0.20403488950659282932,20.579318030759346252
0.12700000000000009,4.039391961581541823,1.0409996030372068997,3.8491534273974744996,-0.20586358572947818748,20.579318030759346257
0.12800000000000009,4.0404372449198640307,1.0495682004502109525,3.8489466488469658055,-0.20769374916266690282,20.579318030759346257
0.1290000000000001,4.0414911002319013904,1.0581435461790821472,3.8487380394530939383,-0.20952525064904325614,20.579318030759346259
0.1300000000000001,4.042553534252796091,1.0667256135677298591,3.8485275979437896994,-0.21135795765625457904,20.579318030759346259
0.1310000000000001,4.0436245536901063336,1.0753143741025868692,3.8483153231812129841,-0.21319173425486324812,20.579318030759346268
0.1320000000000001,4.0447041652219438658,1.0839097974026877868,3.8481012141651605924,-0.21502644109698030679,20.579318030759346275
0.1330000000000001,4.0457923754951017666,1.0925118512100952227,3.8478852700364951532,-0.21686193539539753887,20.579318030759346281
0.1340000000000001,4.046889191123172837,1.1011205013806846027,3.8476674900805946666,-0.21869807090323496206,20.579318030759346288
0.1350000000000001,4.0479946186846589586,1.1097357118752985767,3.8474478737308221287,-0.22053469789412084299,20.579318030759346297
0.1360000000000001,4.049108664721071795,1.1183574447512820473,3.847226420572014707,-0.2223716631429214588,20.579318030759346307
0.1370000000000001,4.0502313357350252267,1.1269856601544088939,3.8470031303439918995,-0.22420880990703794303,20.579318030759346311
0.1380000000000001,4.0513626381883199082,1.1356203163112115194,3.8467780029450821108,-0.2260459779082876545,20.579318030759346321
0.1390000000000001,4.052502578500020366,1.1442613695217243847,3.846551038435667044,-0.22788300331538759809,20.579318030759346323
0.1400000000000001,4.0536511630445250464,1.1529087741526527296,3.8463222370417433015,-0.22971971872705750348,20.57931803075934633
0.1410000000000001,4.0548083981496297543,1.1615624826309776999,3.846091599158500567,-0.23155595315576023347,20.57931803075934633
0.1420000000000001,4.0559742900945849158,1.1702224454380091163,3.845859125353915719,-0.23339153201209724519,20.579318030759346332
0.1430000000000001,4.057148845108147126,1.178888611103897122,3.845624816372362216,-0.2352262770898768666,20.579318030759346328
0.1440000000000001,4.0583320693666254386,1.1875609262026139464,3.845388673138234067,-0.23706000655187317523,20.57931803075934632
0.1450000000000001,4.0595239689919228794,1.1962393353474170008,3.8451506967595836931,-0.2388925349162932775,20.579318030759346327
0.1460000000000001,4.0607245500495736694,1.2049237811868045016,3.8449108885317729585,-0.24072367304397078169,20.579318030759346334
0.1470000000000001,4.061933818546776652,1.213614204400974781,3.844669249941136638,-0.24255322812630323987,20.579318030759346332
0.1480000000000001,4.063151780430425435,1.2223105436988003934,3.844425782668657568,-0.24438100367395129837,20.579318030759346332
0.1490000000000001,4.0643784415851357725,1.2310127358153280766,3.8441804885936527092,-0.2462067995063172461,20.579318030759346339
0.1500000000000001,4.0656138078312707125,1.2397207155098155514,3.843933369797469335,-0.24803041174182058347,20.57931803075934634
