t,phi1,v1,phi2,v2,energy
0.0,3.5910293268336239692,0.0,4.228148048922511393,0.0,22.238491779203437797
0.001,3.5910298975129168694,0.0011413642252688198864,4.228151931269789844,0.007764693224477294059,22.238491779203437795
0.002,3.59103160958463256,0.0022827961248144383914,4.2281635783036304807,0.015529370459245269309,22.238491779203437794
0.003,3.5910344631502837923,0.0034243633764783521127,4.2281829900000475033,0.023294015711298884751,22.238491779203437788
0.004,3.5910384583790644277,0.0045661336652308205712,4.2282101663190590855,0.031058612981042257992,22.238491779203437785
0.005,3.591043595507858346,0.0057081746867336651973,4.2282451072046791374,0.038823146258994751773,22.238491779203437785
0.006,3.591049874841251919,0.006850554150901169587,4.228287812584905775,0.04658759952249886878,22.238491779203437783
0.007,3.5910572967515500414,0.007993339785458448537,4.228338282371706497,0.054351956732430556653,22.238491779203437781
0.008,3.5910658616787957196,0.0091365993394966537176,4.2283965164610000757,0.062116201829912524608,22.23849177920343778
0.009000000000000001,3.591075570130793215,0.010280400587024384289,4.2284625147326351602,0.069880318733031172115,22.238491779203437778
0.010000000000000002,3.591086422683134734,0.011424811330514671308,4.2285362770503656027,0.077644291333557729254,22.238491779203437778
0.011000000000000003,3.5910984199792306637,0.012569899404446905364,4.228617803261822504,0.08540810349367420708,22.23849177920343778
0.012000000000000004,3.5911115627303433488,0.013715732678843077633,4.2287070931984829902,0.09317173904270475521,22.238491779203437775
0.013000000000000005,3.5911258517156243969,0.014862379062797705315,4.2288041466756357235,0.100935181773853022174,22.238491779203437773
0.014000000000000005,3.5911412877821555151,0.016009906508000813316,4.228908963492343151,0.10869841544094611261,22.238491779203437775
0.015000000000000006,3.5911578718449928638,0.017158383012253345016,4.2290215434314005066,0.1164614237551857334,22.238491779203437778
0.016000000000000007,3.5911756048872149213,0.01830787662297437604,4.2291418862592915612,0.12422419038190711925,22.23849177920343778
0.017000000000000008,3.5911944879599738518,0.019458455440699506085,4.2292699917261411414,0.1319866989373463256,22.238491779203437778
0.01800000000000001,3.591214522182550368,0.020610187622569805134,4.2294058595656644148,0.13974893298541647497,22.238491779203437776
0.01900000000000001,3.5912357087424120758,0.021763141385810691705,4.229549489495112962,0.14751087603449353985,22.23849177920343778
0.02000000000000001,3.5912580488952752947,0.02291738501120012221,4.2297008812152176367,0.15527251153421224337,22.23849177920343778
0.02100000000000001,3.5912815439651703388,0.024072986846525472072,4.2298600344101282243,0.16303382287227265536,22.238491779203437775
0.022000000000000013,3.5913061953445102506,0.025230015310028490745,4.230026948747349916,0.1707947933712580593,22.238491779203437776
0.023000000000000013,3.591332004494162972,0.026388538893837714624,4.230201623877676608,0.17855540628546466167,22.238491779203437776
0.024000000000000014,3.5913589729435269429,0.02754862616738772349,4.2303840594351210308,0.18631564479774371306,22.238491779203437781
0.025000000000000015,3.591387102290610109,0.028710345780824628138,4.230574255036841736,0.19407549201635660573,22.238491779203437783
0.026000000000000016,3.591416394202112332,0.0298737664683971787,4.230772210283066933,0.20183493097184350976,22.238491779203437787
0.027000000000000017,3.591446850413511182,0.031038957051832885338,4.230977924757015214,0.20959394461390610558,22.238491779203437783
0.028000000000000018,3.591478472729151095,0.03220598644369854508,4.2311913980248131574,0.21735251580830496682,22.238491779203437785
0.02900000000000002,3.591511263022335889,0.033374923650744570826,4.231412629635409848,0.22511062733377214368,22.23849177920343778
0.03000000000000002,3.5915452232354246115,0.034545837777232520956,4.231641619120488304,0.23286826187893949221,22.238491779203437781
0.03100000000000002,3.591580355379930706,0.035718798028245230297,4.2318783659943738536,0.24062540203928329097,22.238491779203437785
0.03200000000000002,3.591616661536624483,0.036893873712978945867,4.2321228697539394585,0.24838203031408568163,22.238491779203437781
0.03300000000000002,3.5916541438556388696,0.038071134248016873296,4.232375129878508003,0.25613812910341346565,22.238491779203437778
0.03400000000000002,3.5916928045565784278,0.03925064916058354269,4.2326351458297515793,0.2638936807051147838,22.238491779203437776
0.035000000000000024,3.5917326459286316122,0.040432488091779405357,4.232902917051587774,0.2716486673118342005,22.238491779203437776
0.036000000000000025,3.5917736703306862567,0.041616720799795075854,4.23317844297007298,0.27940307100804670994,22.238491779203437778
0.037000000000000026,3.591815880191448262,0.042803417163104636736,4.233461722993292752,0.287156873767111175,22.238491779203437776
0.03800000000000003,3.591859278009563467,0.043992647183637426458,4.2337527565112492247,0.29491005744834370466,22.238491779203437775
0.03900000000000003,3.591903866353742681,0.04518448098992773415,4.234051542895745616,0.30266260379411147015,22.238491779203437775
0.04000000000000003,3.5919496478628898544,0.046378988840241828212,4.234358081500267834,0.31041449442694745356,22.238491779203437773
0.04100000000000003,3.5919966252462333632,0.047576241125681749042,4.2346723716598632073,0.31816571084668661705,22.238491779203437771
0.04200000000000003,3.5920448012834603885,0.0487763083732652997,4.2349944126910163654,0.32591623442762397453,22.238491779203437776
0.04300000000000003,3.5920941788248543607,0.04997926124898167187,4.2353242038915222896,0.33366604641569504094,22.238491779203437775
0.04400000000000003,3.5921447607914354491,0.051185170560822148184,4.235661744540356548,0.34141512792567912788,22.238491779203437771
0.04500000000000003,3.5921965501751040688,0.052394107261785325647,4.2360070338975427543,0.34916345993842594787,22.23849177920343777
0.046000000000000034,3.5922495500387873792,0.05360614245285630881,4.23636007120401726,0.35691102329810598225,22.238491779203437768
0.047000000000000035,3.5923037635165887495,0.0548213473859593253,4.2367208556814911114,0.36465779870948506066,22.238491779203437768
0.048000000000000036,3.5923591938139401633,0.05603979346688322033,4.2370893865323092918,0.372403766735223593,22.238491779203437764
0.04900000000000004,3.5924158442077575332,0.057261552258179290948,4.2374656629393072766,0.38014890779320088763,22.238491779203437764
0.05000000000000004,3.592473718046598902,0.05848669548203092499,4.237849684065664923,0.3878932021538649811,22.238491779203437764
0.05100000000000004,3.592532818750825496,0.059715295023094514226,4.2382414490547577284,0.3956366299376083981,22.238491779203437768
0.05200000000000004,3.592593149812765608,0.060947422931311115282,4.2386409570300054707,0.40337917111217025168,22.238491779203437764
0.05300000000000004,3.592654714796881274,0.06218315142468833677,4.239048207094718266,0.4111208054900650858,22.238491779203437766
0.05400000000000004,3.5927175173399377188,0.06342255289205193546,4.2394631983319400743,0.4188615127260388547,22.238491779203437768
0.05500000000000004,3.592781561151175537,0.06466569989576660919,4.2398859298042896656,0.42660127231455242407,22.238491779203437768
0.05600000000000004,3.5928468500124855793,0.06591266517442547896,4.240316400553799091,0.43434006358729297176,22.238491779203437762
0.057000000000000044,3.5929133877785865124,0.06716352164550775747,4.240754609601749675,0.4420778657107136558,22.238491779203437762
0.058000000000000045,3.5929811783772050207,0.068418342408004106615,4.2412005559485055632,0.44981465768360190985,22.238491779203437766
0.059000000000000045,3.5930502258092586166,0.069677200745009191316,4.241654238573344856,0.45755041833467671625,22.238491779203437768
0.060000000000000046,3.593120534149041026,0.07094017012628094231,4.2421156564342883464,0.4652851263202151978,22.238491779203437768
0.06100000000000005,3.59319210754441012,0.07220732421076604601,4.242584808467925906,0.47301876012170886098,22.238491779203437766
0.06200000000000005,3.5932649502169783484,0.07347873684909118454,4.2430616935892405393,0.4807512980435498121,22.238491779203437766
0.06300000000000004,3.593339066462305653,0.07475448208601955503,4.243546310691430142,0.48848271821074726006,22.238491779203437768
0.06400000000000004,3.5934144606500948184,0.07603463416287220236,4.244038658645726986,0.4962129985666746083,22.238491779203437771
0.06500000000000004,3.593491137224389224,0.07731926751991370554,4.2445387363012149736,0.50394211687084742923,22.238491779203437766
0.06600000000000004,3.5935691007037729656,0.0786084567987017635,4.245046542484644677,0.51167005069673260353,22.238491779203437768
0.06700000000000005,3.59364835568157331,0.079902276844400232025,4.245562076000246211,0.5193967774295888981,22.238491779203437764
0.06800000000000005,3.5937289068260654392,0.08120080270805516945,4.246085335629539957,0.5271222742643392429,22.23849177920343777
0.06900000000000005,3.593810758880679458,0.082504109648833454765,4.246616320131145179,0.53484651820347496116,22.238491779203437766
0.07000000000000005,3.5938939166642096157,0.08381227313622354803,4.2471550282405865512,0.54256948605499219073,22.238491779203437768
0.07100000000000005,3.593978385071025715,0.08512536885219796902,4.2477014586700986526,0.55029115443036072906,22.238491779203437768
0.07200000000000005,3.5940641690712866589,0.086443472693337076574,4.2482556101084284327,0.55801149974252551954,22.238491779203437768
0.07300000000000005,3.5941512737111561049,0.087766660772913737275,4.2488174812206357034,0.56573049820394098725,22.238491779203437762
0.07400000000000005,3.5942397041130201832,0.08909500942293847892,4.249387070647891679,0.5734481258246384208,22.238491779203437766
0.07500000000000005,3.594329465475707241,0.09042859519616473021,4.2499643770072756013,0.58116435841032658535,22.238491779203437764
0.07600000000000005,3.594420563074709571,0.091767494868053755685,4.2505493988915694806,0.58887917156052573973,22.238491779203437764
0.07700000000000005,3.594513002262407084,0.093111785438698900706,4.251142134869050988,0.59659254066673522016,22.23849177920343776
0.07800000000000006,3.5946067884682928867,0.094461544134708768794,4.251742583483284532,0.6043044409106347393,22.238491779203437759
0.07900000000000006,3.594701927199200721,0.09581684841104896027,4.2523507432529105555,0.61201484726231953997,22.238491779203437766
0.08000000000000006,3.5947984240395342253,0.09717777595284200826,4.2529666126714330814,0.6197237344785695273,22.238491779203437766
0.08100000000000006,3.5948962846514979726,0.09854440467712515509,4.2535901902070055464,0.6274310771011524946,22.238491779203437762
0.08200000000000006,3.5949955147753302467,0.0999168127345656194,4.254221474302214954,0.63513684945516154183,22.23849177920343777
0.08300000000000006,3.595096120229537513,0.10129507851113301153,4.2548604633738643845,0.64284102564738677753,22.23849177920343777
0.08400000000000006,3.5951981069111305384,0.102679280629728561916,4.255507155812753891,0.6505435795647213772,22.238491779203437773
0.08500000000000006,3.5953014807958621182,0.10406949795177083485,4.2561615499834598206,0.6582444848726020635,22.238491779203437768
0.08600000000000006,3.5954062479384663704,0.105465809578737607305,4.2568236442241125903,0.6659437150134840571,22.23849177920343777
0.08700000000000006,3.5955124144728995458,0.106868294853663600043,4.257493436846172961,0.6736412432053505349,22.238491779203437768
0.08800000000000006,3.5956199866125823164,0.10827703336259375606,4.258170926134206831,0.6813370424402566202,22.238491779203437766
0.08900000000000007,3.5957289706506434918,0.1096921049359917688,4.258856110345658598,0.68903108548290791565,22.238491779203437764
0.09000000000000007,3.5958393729601651255,0.11111358965010357064,4.259548987710623108,0.6967233448692735748,22.23849177920343777
0.09100000000000007,3.5959511999944289591,0.1125415678282754998,4.260249556431616247,0.7044137929052338976,22.238491779203437773
0.09200000000000007,3.5960644582871641628,0.113976120042226871786,4.260957814683344184,0.7121024016652624192,22.238491779203437773
0.09300000000000007,3.5961791544527963256,0.115417327113276689345,4.261673760612471322,0.71978914299114244845,22.238491779203437775
0.09400000000000007,3.5962952951866976492,0.1168652701135242333,4.2623973923373869805,0.7274739884907179993,22.238491779203437775
0.09500000000000007,3.5964128872654382997,0.11832003036698328405,4.2631287079479708462,0.73515690953667904345,22.238491779203437773
0.09600000000000007,3.5965319375470388688,0.119781689450669732415,4.2638677055053572245,0.74283787726538099913,22.238491779203437775
0.09700000000000007,3.5966524529712239008,0.12125032919564234607,4.2646143830416981314,0.7505168625756983573,22.238491779203437771
0.09800000000000007,3.5967744405596764363,0.122726031687996466614,4.26536873855992525,0.75819383612791233114,22.238491779203437773
0.09900000000000007,3.5968979074162935258,0.12420887926981042006,4.2661307700335107996,0.7658687683426324021,22.238491779203437771
0.10000000000000007,3.5970228607274426665,0.12569895454004443243,4.2669004754062273346,0.77354162939975161934,22.238491779203437766
0.10100000000000008,3.5971493077622191128,0.12719634035539185022,4.267677852591906522,0.78121238923743549796,22.238491779203437766
0.10200000000000008,3.5972772558727040164,0.12870111983108247388,4.2684628994741969214,0.78888101755114434374,22.23849177920343777
0.10300000000000008,3.5974067124942233436,0.13021337634163782137,4.2692556139063208066,0.79654748379268881976,22.238491779203437768
0.10400000000000008,3.5975376851456075241,0.13173319352157814687,4.270055993710830055,0.8042117571693185552,22.238491779203437768
0.10500000000000008,3.597670181429451784,0.1332606552660810486,4.2708640366793611453,0.8118738066428435815,22.238491779203437771
0.10600000000000008,3.5978042090323771125,0.13479584573159150822,4.271679740572389294,0.8195336009287883666,22.238491779203437773
0.10700000000000008,3.5979397757252918125,0.13633884933638321296,4.2725031031189817576,0.82719110849557820383,22.238491779203437775
0.10800000000000008,3.5980768893636535905,0.13788975076107102024,4.2733341220165503424,0.83484629756375769563,22.23849177920343778
0.10900000000000008,3.5982155578877321348,0.13944863494907443331,4.274172794930603144,0.84249913610524105966,22.238491779203437787
0.11000000000000008,3.5983557893228721287,0.14101558710703196487,4.2750191194944955585,0.85014959184259396784,22.238491779203437787
0.11100000000000008,3.5984975917797566588,0.14259069270516627489,4.2758730933091805837,0.8577976322483466154,22.238491779203437788
0.11200000000000009,3.5986409734546709594,0.1441740374775999773,4.2767347139429584568,0.8654432245443377012,22.238491779203437787
0.11300000000000009,3.5987859426297664506,0.14576570742262201859,4.2776039789312256443,0.87308633570108898624,22.238491779203437794
0.11400000000000009,3.598932507673325017,0.14736578880290454112,4.2784808857762232294,0.8807269324372100817,22.238491779203437795
0.11500000000000009,3.5990806770400234796,0.14897436814567015173,4.27936543194678471,0.888364981218833103,22.238491779203437792
0.11600000000000009,3.599230459271198207,0.15059153224280952586,4.280257614878083253,0.8960004482590768126,22.238491779203437794
0.11700000000000009,3.5993818629951098232,0.15221736815094928525,4.2811574319713784254,0.90363329951753985545,22.2384917792034378
0.11800000000000009,3.5995348969272079572,0.15385196319147009725,4.2820648805937624333,0.91126350069982268185,22.238491779203437799
0.11900000000000009,3.5996895698703959838,0.15549540495047495164,4.2829799580779058937,0.9188910172570777316,22.2384917792034378
0.12000000000000009,3.5998458907152957103,0.15714778127870757988,4.2839026617218031764,0.9265158143855874423,22.238491779203437804
0.1210000000000001,3.6000038684405119551,0.1588091802914209909,4.2848329887885173326,0.93413785702636962686,22.23849177920343781
0.1220000000000001,3.6001635121128969712,0.16047969036819610565,4.2857709365059246456,0.94175710986480975367,22.238491779203437811
0.1230000000000001,3.600324830887814662,0.16215940015271048198,4.286716502066458823,0.94937353733031964347,22.238491779203437814
0.1240000000000001,3.6004878340094045419,0.16384839855245712956,4.2876696826268548674,0.95698710359602208615,22.238491779203437806
0.12500000000000008,3.6006525308108453893,0.16554677473841342411,4.2886304753078926346,0.964597772578460863,22.238491779203437804
0.12600000000000008,3.6008189307146185466,0.16725461814466013764,4.2895988771941401248,0.97220550793733564684,22.238491779203437804
0.12700000000000009,3.6009870432327708107,0.1689720184679506114,4.290574885333696515,0.97981027307526123634,22.238491779203437806
0.12800000000000009,3.6011568779671768697,0.1706990656672301058,4.2915584967379349626,0.9874120311375505664,22.238491779203437813
0.1290000000000001,3.6013284446098012348,0.1724358499631053707,4.2925497083812452063,0.9950107450120209226,22.238491779203437807
0.1300000000000001,3.6015017529429596145,0.17418246183726448777,4.29354851720077598,1.002606377328822772,22.238491779203437807
0.1310000000000001,3.6016768128395796852,0.17593899203184704522,4.294554920096177273,1.0101988904602906077,22.238491779203437811
0.1320000000000001,3.6018536342634612081,0.17770553154876471356,4.2955689139293424476,1.0177882465208151924,22.238491779203437813
0.1330000000000001,3.6020322272695354407,0.1794821716489722995,4.2965904955241502375,1.0253744073667365675,22.238491779203437818
0.1340000000000001,3.6022126020041237947,0.18126900385168936319,4.2976196616662066564,1.0329573345962571849,22.238491779203437816
0.1350000000000001,3.60239476870519569,0.1830661199335724927,4.298656409102586821,1.0405369895493744998,22.238491779203437821
0.1360000000000001,3.6025787377026255592,0.18487361192783833756,4.2997007345415767226,1.0481133333078323524,22.23849177920343782
0.1370000000000001,3.6027645194184489475,0.18669157212333751102,4.3007526346524149563,1.0556863266950904497,22.238491779203437821
0.1380000000000001,3.602952124367117663,0.18852009306357947947,4.301812106065034428,1.0632559302763112448,22.238491779203437823
0.1390000000000001,3.6031415631557539285,0.19035926754570856498,4.3028791453698040587,1.0708221043583634992,22.238491779203437828
0.1400000000000001,3.6033328464844034838,0.1922091886194311945,4.3039537491172705,1.0783848089898417991,22.238491779203437828
0.1410000000000001,3.6035259851462875897,0.19406994958589453808,4.3050359138178998725,1.0859440039611012785,22.238491779203437827
0.1420000000000001,3.6037209900280538911,0.19594164399651668504,4.306125635941819553,1.0934996488043067989,22.23849177920343783
0.1430000000000001,3.6039178721100260795,0.1978243656517685155,4.3072229119185600145,1.1010517027934958093,22.23849177920343783
0.1440000000000001,3.6041166424664523183,0.19971820859990743199,4.308327738136796734,1.108600124944654106,22.23849177920343783
0.1450000000000001,3.6043173122657523762,0.20162326713566312299,4.309440110944092185,1.1161448740158036968,22.238491779203437834
0.1460000000000001,3.6045198927707634217,0.20353963579887553818,4.310560026646637922,1.1236859085071019571,22.238491779203437834
0.1470000000000001,3.604724395338984434,0.20546740937308526186,4.311687481508996769,1.1312231866609512585,22.238491779203437839
0.1480000000000001,3.6049308314228191773,0.20740668288407647851,4.312822471753845125,1.1387566664621182328,22.238491779203437839
0.1490000000000001,3.605139212569817697,0.20935755159837273143,4.3139649935617153907,1.1462863056378618267,22.23849177920343784
0.1500000000000001,3.6053495504229162878,0.21132011102168568196,4.315115043070738528,1.1538120616580692843,22.238491779203437844
0.1510000000000001,3.6055618567206758856,0.21329445689731708417,4.3162726163763867598,1.1613338917353991882,22.23849177920343785
