t,phi1,v1,phi2,v2,energy
0.0,2.1968784885288883402,0.0,4.854922859361646026,0.0,10.103292467616004845
0.001,2.1968754866655248702,-0.00600373293554529839,4.8549250569161311957,0.0043950977513276839095,10.1032924676160048415
0.002,2.1968664810381825234,-0.012007540375466306925,4.8549316495122724464,0.008790060873833735274,10.103292467616004846
0.003,2.1968514715351024908,-0.018011496830124701575,4.8549426369481251866,0.013184754735071364337,10.1032924676160048415
0.004,2.1968304579700101162,-0.024015676821852904405,4.854958018887109054,0.017579044695344865994,10.103292467616004846
0.005,2.1968034400820999317,-0.030020154890936491901,4.854977794857998859,0.021972796104088661135,10.103292467616004843
0.006,2.1967704175360147172,-0.03602500560159304386,4.855001964254911904,0.026365874296250539518,10.103292467616004848
0.007,2.1967313899218185783,-0.042030303547946243407,4.8550305263372916897,0.030758144588680509451,10.103292467616004848
0.008,2.1966863567549640575,-0.048036123359994036187,4.855063480229888017,0.035149472276526663413,10.10329246761600485
0.009000000000000001,2.196635317476253278,-0.054042539709569653526,4.8551008249227334853,0.03953972262963947378,10.103292467616004846
0.010000000000000002,2.1965782714517931313,-0.060049627316294300704,4.8551425592711164,0.043928760888985938945,10.103292467616004845
0.011000000000000003,2.1965152179729445176,-0.06605746095352030684,4.8551886819955501037,0.04831645226307500688,10.103292467616004843
0.012000000000000004,2.196446156256265646,-0.072066115454263527985,4.8552391916817387325,0.052702661924395711434,10.103292467616004843
0.013000000000000005,2.1963710854434494116,-0.07807566571712378926,4.855294086780539424,0.0570872550058694655,10.103292467616004838
0.014000000000000005,2.1962900046012548548,-0.08408618671219214539,4.85535336560792098,0.061470096597317965305,10.103292467616004838
0.015000000000000006,2.1962029127214327238,-0.090097753486943732204,4.8554170263449190096,0.06585105174194817104,10.103292467616004834
0.016000000000000007,2.1961098087206451502,-0.09611044117211497389,4.8554850670375875638,0.070229985432855841056,10.1032924676160048285
0.017000000000000008,2.1960106914403794557,-0.102124324987563902515,4.8555574855969472828,0.07460676260954911004,10.103292467616004831
0.01800000000000001,2.1959055596468561081,-0.108139480248112337565,4.855634279798930083,0.07898124815449361539,10.103292467616004829
0.01900000000000001,2.195794412030930845,-0.11415598236936866348,4.855715447284320393,0.08335330688968069131,10.103292467616004824
0.02000000000000001,2.1956772472079909837,-0.120173906873529933076,4.8558009855586929744,0.087722803573220166076,10.10329246761600483
0.02100000000000001,2.1955540637178459404,-0.12619332939516201395,4.8558908919923473493,0.09208960289595931514,10.103292467616004837
0.022000000000000013,2.1954248600246119817,-0.13221432568695648332,4.8559851638202388567,0.09645356947812954068,10.103292467616004844
0.023000000000000013,2.1952896345165912291,-0.13823697162546296468,4.856083798141906373,0.10081456786602236767,10.103292467616004839
0.024000000000000014,2.1951483855061449486,-0.144261343216795587,4.856186791921396722,0.10517246252869636629,10.103292467616004836
0.025000000000000015,2.1950011112295611413,-0.1502875166023122333,4.8562941419871858105,0.109527117854716632066,10.103292467616004835
0.026000000000000016,2.1948478098469164728,-0.15631556806426523199,4.8564058450320965175,0.11387839814892847721,10.103292467616004832
0.027000000000000017,2.1946884794419325656,-0.16234557403142212893,4.8565218976132133767,0.11822616762926700979,10.103292467616004827
0.028000000000000018,2.1945231180218266874,-0.1683776110846551634,4.8566422961517940853,0.122570290423604301825,10.103292467616004831
0.02900000000000002,2.1943517235171568643,-0.17441175596249805431,4.856767036933177885,0.12691063056663587275,10.103292467616004826
0.03000000000000002,2.1941742937816614552,-0.18044808556666868729,4.8568961161066908395,0.1312470519968082409,10.103292467616004822
0.03100000000000002,2.1939908265920932216,-0.18648667696755627465,4.8570295296855480723,0.13557941855328932315,10.103292467616004823
0.03200000000000002,2.1938013196480479275,-0.19252760740967154341,4.8571672735467529896,0.13990759397298349158,10.103292467616004828
0.03300000000000002,2.1936057705717875086,-0.19857095431705848678,4.857309343430993544,0.14423144188759312499,10.103292467616004829
0.03400000000000002,2.1934041769080578502,-0.2046167952986661959,4.8574557349425355824,0.14855082582072852448,10.103292467616004833
0.035000000000000024,2.1931965361239012132,-0.21066520815367926801,4.8576064435491133316,0.15286560918506809299,10.103292467616004833
0.036000000000000025,2.1929828456084633507,-0.21671627087680526686,4.8577614645818170663,0.15717565527957071222,10.103292467616004827
0.037000000000000026,2.1927631026727953615,-0.22277006166351768944,4.857920793234978019,0.16148082728674228373,10.103292467616004827
0.03800000000000003,2.1925373045496503197,-0.22882665891525287153,4.8580844245660505846,0.16578098826995843567,10.103292467616004827
0.03900000000000003,2.1923054483932747339,-0.23488614124455924103,4.8582523534954918736,0.17007600117084543309,10.103292467616004823
0.04000000000000003,2.1920675312791948817,-0.24094858748019730543,4.8584245748066386796,0.17436572880672136584,10.103292467616004825
0.04100000000000003,2.191823550203998068,-0.24701407667218873498,4.8586010831455819186,0.17865003386809972719,10.103292467616004822
0.04200000000000003,2.1915735020851088617,-0.25308268809681287883,4.8587818730210386004,0.18292877891625753443,10.1032924676160048225
0.04300000000000003,2.191317383760560361,-0.25915450126154902555,4.858966938804221406,0.1872018263808701835,10.103292467616004815
0.04400000000000003,2.191055191988760547,-0.26522959590996269356,4.859156274728705931,0.1914690385577152709,10.103292467616004807
0.04500000000000003,2.1907869234482537787,-0.2713080520265342097,4.859349874890295668,0.19573027760644765817,10.10329246761600481
0.046000000000000034,2.1905125747374774865,-0.27738994984142780766,4.8595477332468848073,0.1999854055484480983,10.103292467616004812
0.047000000000000035,2.1902321423745141305,-0.28347536983519944798,4.859749843618318912,0.20423428426474778705,10.103292467616004811
0.048000000000000036,2.1899456227968384816,-0.28956439274344153434,4.8599561996862535663,0.20847677549403124901,10.103292467616004812
0.04900000000000004,2.1896530123610602888,-0.29565709956136267036,4.860166794994011066,0.21271274083072001375,10.103292467616004806
0.05000000000000004,2.1893543073426624012,-0.30175357154830057012,4.8603816229464352253,0.2169420417231395861,10.103292467616004814
0.05100000000000004,2.1890495039357344108,-0.30785389023216620626,4.8606006768097444097,0.22116453947177226292,10.103292467616004807
0.05200000000000004,2.188738598252701887,-0.31395813741381724642,4.860823949711382846,0.22538009522759839939,10.103292467616004807
0.05300000000000004,2.1884215863240512733,-0.32006639517135879725,4.861051434639870336,0.22958856999052877823,10.103292467616004804
0.05400000000000004,2.18809846409805052,-0.3261787458643694415,4.8612831244446504378,0.23378982460793078788,10.103292467616004804
0.05500000000000004,2.1877692274404655299,-0.33229527213805052098,4.8615190118359372278,0.23798371977325116928,10.103292467616004809
0.05600000000000004,2.1874338721342724934,-0.33841605692729658214,4.861759089384560733,0.24217011602473814443,10.1032924676160048025
0.057000000000000044,2.1870923938793661954,-0.344541183460684868,4.8620033495218111337,0.24634887374426579628,10.103292467616004802
0.058000000000000045,2.1867447882922643697,-0.350670735264381702,4.8622517845392818478,0.25051985315626362565,10.103292467616004802
0.059000000000000045,2.186391050905808194,-0.35680479616596357513,4.8625043865887115943,0.2546829143267542688,10.103292467616004804
0.060000000000000046,2.186031177168859005,-0.3629434502981507087,4.862761147681825553,0.25883791716250241762,10.103292467616004801
0.06100000000000005,2.1856651624459913252,-0.36908678210245082825,4.8630220596901757267,0.26298472141027804517,10.103292467616004796
0.06200000000000005,2.1852930020171822917,-0.37523487633271084547,4.863287114344980627,0.26712318665623709912,10.103292467616004794
0.06300000000000004,2.1849146910774975814,-0.3813878180585741054,4.8635563032369644033,0.27125317232542288878,10.103292467616004795
0.06400000000000004,2.1845302247367739243,-0.3875456926688408163,4.86382961781619553,0.27537453768139145377,10.103292467616004792
0.06500000000000004,2.1841395980192983097,-0.39370858587472924028,4.8641070493919251853,0.27948714182596426717,10.1032924676160047964
0.06600000000000004,2.1837428058634839783,-0.39987658371303517885,4.8643885891324254475,0.2835908436991116908,10.1032924676160048025
0.06700000000000005,2.1833398431215433084,-0.40604977254918724893,4.8646742280648274416,0.28768550207897066685,10.103292467616004804
0.06800000000000005,2.1829307045591577006,-0.41222823908019540006,4.864963957074959572,0.29177097558200019772,10.103292467616004799
0.06900000000000005,2.182515384855144568,-0.41841207033749008078,4.8652577669071859798,0.2958471226632782339,10.1032924676160048
0.07000000000000005,2.1820938786011215408,-0.42460135368964941932,4.8655556481642453725,0.29991380161694365962,10.103292467616004803
0.07100000000000005,2.1816661803011680044,-0.43079617684501173784,4.8658575913070903664,0.30397087057678713658,10.1032924676160048025
0.07200000000000005,2.181232284371484081,-0.43699662785417067585,4.8661635866547274976,0.3080181875169946371,10.103292467616004806
0.07300000000000005,2.180792185140047177,-0.44320279511235015124,4.8664736243840580553,0.3120556102530475718,10.103292467616004804
0.07400000000000005,2.1803458768462662164,-0.4494147673616563421,4.866787694529719892,0.31608299644278348866,10.103292467616004803
0.07500000000000005,2.179893353640633684,-0.4556326336932038256,4.867105786983930379,0.32010020358762139713,10.103292467616004807
0.07600000000000005,2.1794346095843756092,-0.46185648354911296152,4.8674278914963306723,0.32410708903395584447,10.103292467616004806
0.07700000000000005,2.178969638649099614,-0.46808640672437556147,4.867753997673831455,0.3281035099747239497,10.103292467616004803
0.07800000000000006,2.178498434716441167,-0.47432249336858583506,4.8680840949804603376,0.3320893234511496768,10.103292467616004805
0.07900000000000006,2.1780209915777081705,-0.48056483398753355543,4.8684181727372110937,0.33606438635466970814,10.1032924676160048
0.08000000000000006,2.17753730293352403,-0.48681351944465633687,4.8687562201218949113,0.3400285554290453576,10.103292467616004801
0.08100000000000006,2.1770473623934693363,-0.4930686409623478666,4.869098226168993854,0.34398168727266504406,10.103292467616004796
0.08200000000000006,2.1765511634757223204,-0.4993302901231188826,4.869444179769516718,0.34792363834104192614,10.103292467616004804
0.08300000000000006,2.1760486996066982152,-0.505598558870607637,4.8697940696708574937,0.35185426494951138179,10.103292467616004806
0.08400000000000006,2.1755399641206876885,-0.5118735395104365338,4.870147884476656616,0.35577342327613309853,10.103292467616004803
0.08500000000000006,2.1750249502594944963,-0.5181553247109115769,4.8705056126466652303,0.35968096936480262434,10.103292467616004805
0.08600000000000006,2.1745036511720725143,-0.5244440075035612113,4.8708672424966126713,0.36357675912857731314,10.103292467616004806
0.08700000000000006,2.1739760599141623163,-0.5307396812835110883,4.871232762198077381,0.36746064835322168407,10.103292467616004806
0.08800000000000006,2.1734421694479274583,-0.5370424398096912303,4.8716021597783614803,0.3713324927009773003,10.103292467616004805
0.08900000000000007,2.1729019726415906419,-0.54335237720487201876,4.8719754231203692267,0.37519214771456235844,10.103292467616004809
0.09000000000000007,2.1723554622690699279,-0.54966958795552537195,4.87235253996248959,0.37903946882140626828,10.103292467616004801
0.09100000000000007,2.1718026310096151803,-0.55599416691150742835,4.8727334978984831767,0.38287431133812458947,10.103292467616004805
0.09200000000000007,2.1712434714474449146,-0.56232620928555899196,4.8731182843773737617,0.38669653047523978086,10.103292467616004805
0.09300000000000007,2.170677976071383741,-0.5686658106526199439,4.8735068867033446553,0.39050598134215330686,10.103292467616004805
0.09400000000000007,2.1701061372745005871,-0.57501306694895376766,4.8738992920356401764,0.39430251895237473496,10.103292467616004803
0.09500000000000007,2.1695279473537478928,-0.58136807447107827993,4.874295487388472485,0.39808599822901354943,10.103292467616004809
0.09600000000000007,2.1689433985096019718,-0.5877309298744986029,4.8746954596309340396,0.40185627401053949427,10.103292467616004811
0.09700000000000007,2.1683524828457047436,-0.5941017301722383579,4.8750991954869159514,0.40561320105681735303,10.103292467616004817
0.09800000000000007,2.167755192368507033,-0.6004805727331650031,4.875506681535032514,0.40935663405542216107,10.103292467616004814
0.09900000000000007,2.1671515189869136524,-0.60686755528010518317,4.875917904208552189,0.41308642762824093902,10.103292467616004803
0.10000000000000007,2.1665414545119304733,-0.6132627758877459011,4.8763328497953353402,0.41680243633836712815,10.1032924676160048025
0.10100000000000008,2.1659249906563137064,-0.61966633298031726556,4.8767515044377790145,0.42050451469729399932,10.103292467616004802
0.10200000000000008,2.1653021190342216095,-0.6260783253290525124,4.877173854132769063,0.42419251717241340027,10.103292467616004804
0.10300000000000008,2.164672831160868849,-0.6324988520494209404,4.8775998847316399194,0.42786629819482629764,10.103292467616004804
0.10400000000000008,2.164037118452183744,-0.63892801259812934697,4.878029581940142346,0.43152571216747166258,10.103292467616004813
0.10500000000000008,2.163394972224468625,-0.6453659067698874908,4.8784629313184194725,0.43517061347358034092,10.103292467616004813
0.10600000000000008,2.1627463836940635498,-0.6518126346939330557,4.878899918280991452,0.4388008564854606407,10.103292467616004812
0.10700000000000008,2.1620913439770136138,-0.65826829683031153116,4.8793405280967490707,0.4424162955736224623,10.103292467616004814
0.10800000000000008,2.161429844088740107,-0.66473299396590637103,4.8797847458889566583,0.44601678511624688698,10.103292467616004815
0.10900000000000008,2.1607618749437157663,-0.6712068272102147367,4.8802325566352646375,0.44960217950900823223,10.103292467616004824
0.11000000000000008,2.1600874273551443805,-0.67768989799086407517,4.8806839451677320797,0.45317233317525567197,10.103292467616004828
0.11100000000000008,2.159406492034645015,-0.6841823080488647303,4.8811388961728596238,0.4567271005765616106,10.1032924676160048285
0.11200000000000009,2.1587190595919411103,-0.69068415943359372884,4.8815973941916331255,0.46026633622364408958,10.103292467616004827
0.11300000000000009,2.1580251205345547404,-0.69719555449750483204,4.8820594236195784268,0.46378989468767059415,10.10329246761600483
0.11400000000000009,2.1573246652675062947,-0.70371659589055988966,4.882524968706827617,0.46729763061195071647,10.103292467616004832
0.11500000000000009,2.1566176840930198738,-0.71024738655437648143,4.8829940135581971867,0.47078939872402521846,10.103292467616004835
0.11600000000000009,2.1559041672102346792,-0.7167880297160867809,4.8834665421332784712,0.4742650538481591244,10.103292467616004833
0.11700000000000009,2.1551841047149226925,-0.72333862888190252435,4.8839425382465407924,0.47772445091824655884,10.103292467616004834
0.11800000000000009,2.154457486599212936,-0.7298992878303809202,4.8844219855674477146,0.48116744499113512962,10.103292467616004836
0.11900000000000009,2.1537243027513226228,-0.7364701106053862838,4.8849048676205868392,0.48459389126037773885,10.1032924676160048415
0.12000000000000009,2.152984542955295496,-0.74305120150874213694,4.8853911677858135663,0.48800364507041978578,10.1032924676160048415
0.1210000000000001,2.1522381968907476756,-0.7496426650925684635,4.885880869298409264,0.4913965619312298071,10.103292467616004843
0.1220000000000001,2.1514852541326213262,-0.75624460615129877,4.886373955249254296,0.49477249753338167648,10.103292467616004851
0.1230000000000001,2.15072570415094647,-0.76285712971337155206,4.8868704085850163594,0.49813130776359656435,10.103292467616004861
0.1240000000000001,2.149959536310611274,-0.7694803410325907309,4.8873702121083545977,0.5014728487207529318,10.103292467616004864
0.12500000000000008,2.1491867398711411445,-0.77611434557914957776,4.8878733484781399597,0.50479697673237290657,10.103292467616004868
0.12600000000000008,2.1484073039864869687,-0.78275924903031260816,4.8883798002096922894,0.50810354837159345877,10.1032924676160048745
0.12700000000000009,2.1476212177048228454,-0.78941515726074989036,4.888889549675034632,0.5113924204746308647,10.103292467616004878
0.12800000000000009,2.1468284699683536606,-0.79608217633251817356,4.889402579103165252,0.5146634501587470088,10.103292467616004882
0.1290000000000001,2.1460290496131328595,-0.8027604124846832118,4.8899188705803478773,0.51791649484072614233,10.103292467616004886
0.1300000000000001,2.1452229453688907773,-0.80944997212257762276,4.8904384060504206733,0.5211514122558707747,10.103292467616004888
0.1310000000000001,2.1444101458588738973,-0.8161509618066885959,4.8909611673151244795,0.52436806047752543064,10.1032924676160048945
0.1320000000000001,2.1435906395996954098,-0.8228634882411697312,4.8914871360344508383,0.5275662979371370652,10.103292467616004894
0.1330000000000001,2.1427644150011974484,-0.82958765826197126893,4.8920162937270103517,0.53074598344486097467,10.1032924676160049005
0.1340000000000001,2.1419314603663253873,-0.8363235788245829459,4.8925486217704219245,0.5339069762107210938,10.103292467616004903
0.1350000000000001,2.1410917638910145976,-0.8430713569913836921,4.8930841014017234488,0.5370491358663336119,10.10329246761600491
0.1360000000000001,2.1402453136640900463,-0.8498310999185923666,4.893622713717804494,0.54017232248720288204,10.103292467616004916
0.1370000000000001,2.1393920976671791504,-0.8566029148428137142,4.894164439675861587,0.5432763966155986343,10.103292467616004917
0.1380000000000001,2.1385321037746382892,-0.8633869090671737137,4.8947092600938766575,0.54636121928402353587,10.103292467616004924
0.1390000000000001,2.137665319753493388,-0.87018318994703847813,4.8952571556511192594,0.54942665203928017016,10.103292467616004932
0.1400000000000001,2.136791733263394995,-0.87699186487531086354,4.895808106888673155,0.55247255696714653067,10.10329246761600494
0.1410000000000001,2.1359113318565882734,-0.8838130412672989383,4.8963620942099878837,0.55549879671766914273,10.103292467616004947
0.1420000000000001,2.1350241029778983437,-0.8906468265451504675,4.896919097881455941,0.55850523453108294296,10.103292467616004954
0.1430000000000001,2.134130033964731409,-0.8974933281218475702,4.8974790980330161886,0.561491734264367053,10.103292467616004961
0.1440000000000001,2.1332291120470921089,-0.9043526533847557164,4.8980420746587841462,0.56445816041844558815,10.103292467616004968
0.1450000000000001,2.1323213243476175495,-0.91122490967872124307,4.898608007617709809,0.56740437816604264034,10.103292467616004972
0.1460000000000001,2.1314066578816284643,-0.9181102042887115833,4.8991768766342636506,0.5703302533802005643,10.103292467616004973
0.1470000000000001,2.1304850995571979662,-0.9250086444219924254,4.8997486612991514813,0.5732356526634706853,10.103292467616004983
0.1480000000000001,2.1295566361752383535,-0.9319203371898360416,4.9003233410700588347,0.5761204433777855224,10.1032924676160049855
0.1490000000000001,2.12862125442960645,-0.93884538958875505605,4.900900895272425573,0.5789844936750215986,10.103292467616004992
0.1500000000000001,2.1276789409072279446,-0.9457839084812559569,4.9014813031002514043,0.5818276725282618696,10.103292467616004996
