t,phi1,v1,phi2,v2,energy
0.0,4.7816277800916910934,0.0,1.3905391898354315661,0.0,-3.1161419103699790057
0.001,4.781632596806576485,0.009633423561307295388,1.3905390318801784639,-0.0003159222684255975092,-3.1161419103699790007
0.002,4.7816470469139751524,0.019266772606523666153,1.3905385579438446491,-0.0006319856878190123245,-3.1161419103699790035
0.003,4.7816711303021081393,0.028899972606708171572,1.3905377678146949131,-0.00094833143249980219096,-3.116141910369978999
0.004,4.7817048467846557723,0.03853294900722345562,1.3905366611397983235,-0.0012651007234855280169,-3.116141910369978997
0.005,4.781748196100725541,0.048165627214896582437,1.390535237424969858,-0.0015824348518270600113,-3.116141910369978987
0.006,4.78180117791480715,0.057797932585190725397,1.3905334960346887101,-0.0019004752019274467632,-3.1161419103699789799
0.007,4.7818637918167147447,0.06742979040939133073,1.3905314361919932851,-0.002219363274838863951,-3.1161419103699789738
0.008,4.781936037321516335,0.077061125901810379294,1.3905290569783529153,-0.0025392407115321558148,-3.1161419103699789794
0.009000000000000001,4.7820179138694504303,0.08669186418701237346,1.3905263573335163196,-0.0028602493161334779405,-3.116141910369978966
0.010000000000000002,4.782109420825829922,0.09632193028706567993,1.3905233360553368447,-0.0031825310791225444785,-3.1161419103699789694
0.011000000000000003,4.782210557480933216,0.105951249108822864,1.3905199917995745316,-0.0035062282004869766826,-3.1161419103699789577
0.012000000000000004,4.782321323049882678,0.11557974543123365594,1.3905163230796750504,-0.0038314831128272423653,-3.1161419103699789471
0.013000000000000005,4.7824417166725104004,0.12520734389269419618,1.3905123282665255577,-0.0041584385044066679373,-3.1161419103699789586
0.014000000000000005,4.7825717374132113344,0.13483396897843621235,1.3905080055881875339,-0.004487237342140995721,-3.1161419103699789545
0.015000000000000006,4.7827113842607838455,0.14445954500795978835,1.3905033531296066626,-0.0048180228945219494967,-3.1161419103699789454
0.016000000000000007,4.7828606561282577146,0.15408399612251339372,1.3904983688322998232,-0.0051509387544692607904,-3.116141910369978941
0.017000000000000008,4.7830195518527096475,0.16370724627262484921,1.3904930504940192685,-0.005486128862105596882,-3.1161419103699789486
0.01800000000000001,4.783188070195066341,0.1733292192056869141,1.3904873957683940685,-0.0058237375274488195064,-3.1161419103699789445
0.01900000000000001,4.7833662098398951686,0.18294983845360119014,1.3904814021645489051,-0.0061639094530159901708,-3.1161419103699789482
0.02000000000000001,4.783553969395182532,0.19256902732048404655,1.390475067046700311,-0.006506789756333524471,-3.116141910369978942
0.02100000000000001,4.783751347392099961,0.20218670887043828205,1.3904683876337304449,-0.0068525239923478832434,-3.1161419103699789458
0.022000000000000013,4.7839583422847580113,0.21180280591539425022,1.3904613609987385112,-0.0072012581757311733657,-3.1161419103699789506
0.023000000000000013,4.7841749524499480426,0.22141724100302418693,1.3904539840685699265,-0.007553138803076015179,-3.1161419103699789402
0.024000000000000014,4.784401176186871953,0.23102993640473348996,1.3904462536233233499,-0.007908312874974017086,-3.1161419103699789352
0.025000000000000015,4.7846370117168599383,0.24064081410373271471,1.3904381662958356959,-0.008266927917972180741,-3.1161419103699789287
0.026000000000000016,4.7848824571830763687,0.25024979578319406193,1.3904297185711452537,-0.008629132006401542595,-3.1161419103699789254
0.027000000000000017,4.785137510650213866,0.2598568028144961481,1.3904209067859330439,-0.008995073784072339262,-3.1161419103699789265
0.028000000000000018,4.78540217010417567,0.26946175624556086237,1.3904117271279425496,-0.0093649024858299654306,-3.1161419103699789254
0.02900000000000002,4.7856764334517463907,0.27906457678928612908,1.3904021756353779636,-0.009738767958965973614,-3.1161419103699789367
0.03000000000000002,4.78596029852025124,0.28866518481207840944,1.3903922481962810992,-0.010116820684478345352,-3.1161419103699789296
0.03100000000000002,4.786253763057203853,0.29826350032248879145,1.3903819405478871185,-0.010499211798175243149,-3.1161419103699789157
0.03200000000000002,4.786556824729942793,0.30785944295995653253,1.3903712482759592378,-0.010886093111616431832,-3.116141910369978911
0.03300000000000002,4.7868694811252568587,0.31745293198366393578,1.3903601668141025754,-0.011277617132886537001,-3.1161419103699789066
0.03400000000000002,4.7871917297489993,0.32704388626150645696,1.3903486914430573118,-0.011673937087194286822,-3.1161419103699788946
0.035000000000000024,4.78752356802569107,0.3366322242591819553,1.3903368172899713412,-0.0120752069372918618785,-3.1161419103699789035
0.036000000000000025,4.787864993298113219,0.3462178640294030192,1.3903245393276525956,-0.012481581403708455857,-3.1161419103699789037
0.037000000000000026,4.78821600282688857,0.3558007232012363139,1.3903118523738012298,-0.012893215984792127696,-3.116141910369978898
0.03800000000000003,4.788576593790052798,0.36538071896957291675,1.3902987510902218646,-0.01331026697655400368,-3.1161419103699789018
0.03900000000000003,4.7889467632826150435,0.37495776808473362156,1.3902852299820160859,-0.013732891492308865503,-3.1161419103699789042
0.04000000000000003,4.7893265083161082035,0.384531786842213213,1.390271283396755408,-0.0141612474821061378775,-3.116141910369978904
0.04100000000000003,4.7897158258181290373,0.3941026910725677286,1.3902569055236349128,-0.0145954937519452668504,-3.1161419103699789022
0.04200000000000003,4.790114712631868233,0.40367039613144874402,1.3902420903926077841,-0.01503578998276945751,-3.11614191036997891
0.04300000000000003,4.7905231655156305806,0.4132348168897887357,1.3902268318735009621,-0.01548229674923171737,-3.1161419103699789142
0.04400000000000003,4.7909411811423454125,0.42279586772414159252,1.3902111236751121472,-0.015935175538227129561,-3.116141910369978909
0.04500000000000003,4.791368756099067461,0.43235346250718236617,1.3901949593442883918,-0.016394588767185257811,-3.1161419103699789029
0.046000000000000034,4.7918058868864682955,0.4419075145983703681,1.3901783322649865215,-0.016860699802116563472,-3.1161419103699788894
0.047000000000000035,4.7922525699183185117,0.45145793683477973885,1.3901612356573156365,-0.017333672975406693232,-3.1161419103699788942
0.048000000000000036,4.7927088015209608272,0.461004641522101633,1.3901436625765619458,-0.017813673603352475044,-3.1161419103699788864
0.04900000000000004,4.7931745779327742784,0.4705475404258221811,1.3901256059121961983,-0.018300868003433438965,-3.1161419103699788844
0.05000000000000004,4.7936498953036296754,0.48008654476258040748,1.3901070583868639771,-0.01879542351131265941,-3.1161419103699788795
0.05100000000000004,4.7941347496943365132,0.48962156519171029943,1.3900880125553591302,-0.019297508497560695405,-3.1161419103699788849
0.05200000000000004,4.794629137076081513,0.49915251180697124152,1.3900684608035806195,-0.019807292384096386313,-3.1161419103699788855
0.05300000000000004,4.795133053329858996,0.50867929412847104445,1.3900483953474730711,-0.020324945660338242025,-3.1161419103699788805
0.05400000000000004,4.7956464942458932725,0.5182018210947858149,1.3900278082319513249,-0.020850639899060148652,-3.1161419103699788745
0.05500000000000004,4.7961694555230532564,0.5277200010552809294,1.3900066913298092747,-0.021384547771945093855,-3.1161419103699788738
0.05600000000000004,4.796701932768259498,0.5372337417626373889,1.389985036340613312,-0.021926843064830599678,-3.1161419103699788727
0.057000000000000044,4.797243921495883851,0.54674295036558784956,1.389962834789580679,-0.022477700692639535492,-3.1161419103699788732
0.058000000000000045,4.7977954171271419807,0.5562475334018666362,1.3899400780264430512,-0.023037296713989969432,-3.116141910369978874
0.059000000000000045,4.7983564149894789327,0.5657473967913780622,1.3899167572242956736,-0.023605808345477703383,-3.1161419103699788747
0.060000000000000046,4.798926910315947978,0.5752424458295873905,1.3898928633784323806,-0.024183413975625124551,-3.1161419103699788732
0.06100000000000005,4.799506898244582965,0.5847325851811387869,1.3898683873051668363,-0.024770293178489995711,-3.116141910369978876
0.06200000000000005,4.8000963738177644035,0.59421771887370462503,1.3898433196406403387,-0.025366626726927796586,-3.1161419103699788823
0.06300000000000004,4.800695331981579514,0.6036977502920705184,1.3898176508396165376,-0.025972596605501220532,-3.1161419103699788847
0.06400000000000004,4.801303767585176486,0.6131725821724604626,1.3897913711742634218,-0.026588386023030423881,-3.1161419103699788925
0.06500000000000004,4.801921675380113178,0.62264211659710648234,1.3897644707329229394,-0.027214179424777619834,-3.1161419103699788962
0.06600000000000004,4.802549050019700516,0.6321062549890671866,1.3897369394188686174,-0.027850162504259605066,-3.116141910369978897
0.06700000000000005,4.8031858860583408334,0.6415648981072996454,1.3897087669490515588,-0.028496522214681805084,-3.1161419103699788966
0.06800000000000005,4.8038321779508614136,0.65101794604198900604,1.3896799428528351964,-0.029153446779987423904,-3.1161419103699788977
0.06900000000000005,4.8044879200518434913,0.66046529821014027657,1.3896504564707191943,-0.029821125705515285015,-3.1161419103699789057
0.07000000000000005,4.805153106614946978,0.6699068533514367065,1.3896202969530528876,-0.030499749788259953971,-3.1161419103699788996
0.07100000000000005,4.8058277317922311845,0.67934250952436920154,1.3895894532587386656,-0.031189511126727738106,-3.1161419103699788927
0.07200000000000005,4.8065117896334718078,0.6887721641026412112,1.3895579141539257026,-0.03189060313038216628,-3.1161419103699788938
0.07300000000000005,4.80720527408547446,0.69819571377185353045,1.389525668210694451,-0.03260322052867256093,-3.1161419103699789035
0.07400000000000005,4.8079081789913850273,0.70761305452647345706,1.389492703805732318,-0.033327559379639326433,-3.116141910369978901
0.07500000000000005,4.8086204980899971435,0.7170240816670927458,1.3894590091190009498,-0.034063817078089591748,-3.1161419103699789046
0.07600000000000005,4.8093422250150570625,0.7264286897979787996,1.3894245721323955594,-0.034812192363336861674,-3.1161419103699789057
0.07700000000000005,4.8100733532945662355,0.73582677282492353263,1.3893893806283967341,-0.03557288532649834987,-3.1161419103699789083
0.07800000000000006,4.810813876350081884,0.74521822395339433817,1.3893534221887151686,-0.03634609741734368823,-3.1161419103699789137
0.07900000000000006,4.811563787496015879,0.75460293568699158493,1.3893166841929297798,-0.03713203145068873122,-3.11614191036997892
0.08000000000000006,4.8123230799389322327,0.76398079982621706056,1.3892791538171196536,-0.037930891612328200507,-3.1161419103699789252
0.08100000000000006,4.8130917467768435138,0.77335170746755776874,1.3892408180324902949,-0.03874288346450094491,-3.1161419103699789187
0.08200000000000006,4.8138697809985065102,0.78271554900288947833,1.3892016636039946485,-0.039568213950881623106,-3.1161419103699789187
0.08300000000000006,4.8146571754827174523,0.79207221411920440685,1.3891616770889493658,-0.040407091401092652027,-3.1161419103699789265
0.08400000000000006,4.81545392299760713,0.8014215917986674088,1.3891208448356468047,-0.04125972553473030242,-3.11614191036997894
0.08500000000000006,4.8162600161999362318,0.81076357031900502155,1.3890791529819632459,-0.04212632746489886482,-3.116141910369978938
0.08600000000000006,4.817075447634391244,0.8200980372542317033,1.3890365874539638262,-0.04300710970124685414,-3.1161419103699789415
0.08700000000000006,4.8179002097328812405,0.8294248794757175767,1.3889931339645046856,-0.043902286152499269338,-3.1161419103699789508
0.08800000000000006,4.818734294813835918,0.8387439831536019716,1.3889487780118328366,-0.04481207212847997639,-3.1161419103699789569
0.08900000000000007,4.8195776950815052172,0.8480552337585570336,1.3889035048781842691,-0.04573668434161833814,-3.1161419103699789645
0.09000000000000007,4.820430402625260885,0.8573585160639056395,1.3888572996283808085,-0.0466763409079342732,-3.1161419103699789747
0.09100000000000007,4.821292409418900333,0.86665371414809783324,1.3888101471084262524,-0.04763126134749598887,-3.1161419103699789718
0.09200000000000007,4.8221637073199531552,0.8759407113975499633,1.3887620319441023146,-0.04860166658434469917,-3.1161419103699789827
0.09300000000000007,4.823044288068990664,0.885219390509850671,1.3887129385395649147,-0.049587778945880709247,-3.1161419103699789868
0.09400000000000007,4.8239341432889388224,0.8944896334973378418,1.3886628510759413522,-0.05058982216170532154,-3.1161419103699789838
0.09500000000000007,4.8248332644843949374,0.90375132169105059667,1.3886117535099289132,-0.05160802136191309716,-3.1161419103699789903
0.09600000000000007,4.8257416430409484937,0.91300433574506035796,1.3885596295723954623,-0.05264260307482908818,-3.1161419103699790059
0.09700000000000007,4.8266592702245065104,0.92224855564118498176,1.3885064627669825762,-0.053693795224185742815,-3.1161419103699790054
0.09800000000000007,4.827586137180623809,0.9314838606940899054,1.3884522363687117843,-0.054761827125734276237,-3.1161419103699790024
0.09900000000000007,4.8285222349338385727,0.94071012955678020846,1.3883969334225944807,-0.05584692948328539476,-3.116141910369979012
0.10000000000000007,4.8294675543870135928,0.9499272402264874364,1.3883405367422460848,-0.056949334384174360494,-3.1161419103699790085
0.10100000000000008,4.830422086320683611,0.9591350700509549825,1.3882830289085050252,-0.058069275294145487387,-3.1161419103699790198
0.10200000000000008,4.831385821392409136,0.968333495735125769,1.3882243922680571329,-0.059206987051651268424,-3.1161419103699790393
0.10300000000000008,4.8323587501361371576,0.97752239334823590655,1.3881646089320660287,-0.06036270586156144639,-3.1161419103699790453
0.10400000000000008,4.833340862961569159,0.9867016383313179534,1.3881036607748100993,-0.06153666928827745895,-3.116141910369979054
0.10500000000000008,4.8343321501535368345,0.9958711055051173279,1.388041529432326657,-0.062729116248247811115,-3.1161419103699790772
0.10600000000000008,4.835332601871385934,1.0050306690784253637,1.3879781963010638876,-0.06394028700188005586,-3.116141910369979081
0.10700000000000008,4.836342208148368653,1.0141802026568324233,1.3879136425365411873,-0.06517042314484519604,-3.116141910369979084
0.10800000000000008,4.8373609588910449824,1.023319579251904415,1.3878478490520185018,-0.066419767598770458176,-3.116141910369979097
0.10900000000000008,4.838388843878693449,1.0324486712907859807,1.3877807965171752803,-0.06768856460131653141,-3.1161419103699791043
0.11000000000000008,4.839425852762731677,1.041567350626233542,1.3877124653567996614,-0.068977059695635511986,-3.1161419103699791071
0.11100000000000008,4.8404719750661471963,1.0506754885470813112,1.3876428357494885115,-0.070285499719205947224,-3.1161419103699791262
0.11200000000000009,4.841527200182938932,1.0597729557891432846,1.3875718876263589425,-0.071614132792041530136,-3.116141910369979137
0.11300000000000009,4.8425915173775698225,1.0688596225465541504,1.3874996006697719338,-0.072963208304270159794,-3.1161419103699791514
0.11400000000000009,4.8436649157844309907,1.0779353584835519481,1.3874259543120686926,-0.07433297690308025087,-3.1161419103699791698
0.11500000000000009,4.844747384407317925,1.0870000327467052232,1.3873509277343203849,-0.07572369047903134983,-3.1161419103699791772
0.11600000000000009,4.845838912118919111,1.0960535139775873175,1.3872744998650918745,-0.07713560215172629482,-3.1161419103699791824
0.11700000000000009,4.8469394876603175597,1.1050956703259003397,1.3871966493792201109,-0.07856896625484234114,-3.1161419103699791932
0.11800000000000009,4.8480490996405056856,1.1141263694630512494,1.387117354696607808,-0.080024038320518864556,-3.1161419103699792106
0.11900000000000009,4.8491677365359139897,1.1231454785961823821,1.3870365939810330558,-0.08150107506309945084,-3.1161419103699792299
0.12000000000000009,4.850295386689954,1.1321528644826586265,1.386954345138975516,-0.083000334362226381235,-3.1161419103699792464
0.1210000000000001,4.851432038312575929,1.1411483934450133555,1.3868705858184598458,-0.08452207524528573094,-3.1161419103699792516
0.1220000000000001,4.8525776794798415083,1.1501319313863550866,1.3867852934079170032,-0.08606655786920151014,-3.1161419103699792578
0.1230000000000001,4.8537322981335124577,1.1591033438062367258,1.3866984450350640834,-0.08763404350157749584,-3.1161419103699792771
0.1240000000000001,4.854895882080655057,1.1680624958169891279,1.3866100175658033408,-0.08922479450118562657,-3.1161419103699792806
0.12500000000000008,4.8560684189932612886,1.1770092521605205678,1.3865199876031410489,-0.09083907429780006167,-3.1161419103699792923
0.12600000000000008,4.857249896407887005,1.185943477225583591,1.3864283314861268537,-0.09247714737137624275,-3.116141910369979303
0.12700000000000009,4.8584403017253076046,1.1948650350655105685,1.3863350252888142767,-0.09413927923057453517,-3.1161419103699793196
0.12800000000000009,4.859639622210191674,1.2037737894164191472,1.3862400448192430209,-0.09582573639062827494,-3.1161419103699793413
0.1290000000000001,4.8608478449907930713,1.212669603715888636,1.3861433656184437366,-0.09753678635055629815,-3.1161419103699793608
0.1300000000000001,4.8620649570586619245,1.2215523411221082252,1.3860449629594659031,-0.09927269756972028868,-3.1161419103699793775
0.1310000000000001,4.8632909452683750107,1.2304218645334977821,1.38594481184642948,-0.10103373944372754312,-3.116141910369979388
0.1320000000000001,4.864525796337285996,1.2392780366088018145,1.3858428870136009825,-0.10282018227968002143,-3.1161419103699794068
0.1330000000000001,4.865769496845296002,1.248120719787657031,1.385739162924494634,-0.10463229727077082667,-3.116141910369979416
0.1340000000000001,4.867022033234644982,1.2569497763116337695,1.3856336137709992484,-0.10647035647022953751,-3.1161419103699794294
0.1350000000000001,4.8682833918097243703,1.2657650682457513969,1.3855262134725314913,-0.108334632764618103204,-3.11614191036997944
0.1360000000000001,4.8695535587369114887,1.2745664575004676154,1.38541693567521617,-0.11022539984647930229,-3.116141910369979458
0.1370000000000001,4.8708325200444261742,1.2833538058541414398,1.3853057537510941968,-0.11214293218634006269,-3.116141910369979465
0.1380000000000001,4.8721202616222101123,1.2921269749759694318,1.3851926407973588714,-0.114087505004072243564,-3.1161419103699794816
0.1390000000000001,4.8734167692218293365,1.3008858264493946004,1.3850775696356211222,-0.11605939423961378646,-3.1161419103699794957
0.1400000000000001,4.8747220284564003784,1.3096302217959871941,1.3849605128112043447,-0.11805887652305345606,-3.1161419103699795233
0.1410000000000001,4.876036024800540529,1.3183600224997964261,1.3848414425924694727,-0.120086229144082708805,-3.1161419103699795445
0.1420000000000001,4.877358743590342691,1.3270750900321719826,1.3847203309701709113,-0.122141730020818550624,-3.1161419103699795614
0.1430000000000001,4.8786901700233752856,1.3357752858770539743,1.3845971496568439606,-0.12422565766800157264,-3.116141910369979569
0.1440000000000001,4.880030289158707683,1.3444604715567297942,1.3844718700862243522,-0.12633829116457368721,-3.1161419103699795907
0.1450000000000001,4.8813790859169616187,1.353130508658056147,1.3843444634127005148,-0.12847991012064042351,-3.1161419103699796015
0.1460000000000001,4.882736545080389071,1.3617852588591443151,1.3842149005107991853,-0.13065079464382298472,-3.1161419103699796202
0.1470000000000001,4.8841026512929770474,1.3704245839565065177,1.3840831519747049677,-0.13285122530500561571,-3.1161419103699796414
0.1480000000000001,4.8854773890605797514,1.379048345892661017,1.3839491881178144472,-0.13508148310348418102,-3.116141910369979656
