t,phi1,v1,phi2,v2,energy
0.0,3.283463306782481883,0.0,5.106898378493029078,0.0,15.6523566384994645825
0.001,3.2834646068841820687,0.0026002159502230537355,5.10690323168848165,0.009706391392103024788,15.65235663849946458
0.002,3.2834685072645817335,0.0052005824986573571224,5.1069177912777611347,0.01941278862776668308,15.652356638499464582
0.003,3.283475008149578172,0.007801250243454226589,5.1069420572696329736,0.02911919755081986225,15.652356638499464585
0.004,3.283484109915666775,0.010402369782644859776,5.106976029678706683,0.03882562400562719482,15.652356638499464588
0.005,3.2834958130899408787,0.01300409171407964516,5.1070197085254365227,0.0485320738373550245,15.652356638499464589
0.006,3.2835101183500915543,0.015606566635366714219,5.107073093836122429,0.058238552892235084342,15.652356638499464592
0.007,3.2835270265244073339,0.01820994514380948325,5.1071361856429112118,0.06794506701782512435,15.652356638499464594
0.008,3.2835465385917738744,0.020814377836342931488,5.1072089839837980087,0.07765162206326572579,15.652356638499464596
0.009000000000000001,3.2835686556816735557,0.023420015309468361777,5.1072914889026279953,0.087358223879532539455,15.652356638499464596
0.010000000000000002,3.2835933790741850147,0.026027008159186389428,5.107383700449098342,0.09706487831968318506,15.652356638499464601
0.011000000000000003,3.28362071019998261,0.028635506980927904244,5.107485618678760421,0.1067715912390980488,15.6523566384994646
0.012000000000000004,3.2836506506403358159,0.031245662369482749978,5.1075972436530222413,0.11647836849571421605,15.6523566384994646
0.013000000000000005,3.2836832021271085465,0.03385762491892586449,5.107718575439151123,0.12618521595025177621,15.6523566384994646025
0.014000000000000005,3.2837183665427584008,0.036471545222540623167,5.1078496141102765894,0.13589213946643173637,15.652356638499464606
0.015000000000000006,3.2837561459203358325,0.039087573872739126856,5.107990359745393473,0.14559914491118478052,15.652356638499464604
0.016000000000000007,3.2837965424434832373,0.04170586146097917463,5.1081408124293652233,0.15530623815485011081,15.652356638499464605
0.017000000000000008,3.2838395584464339558,0.044326558577677660333,5.1083009722529274135,0.16501342507136360724,15.6523566384994646085
0.01800000000000001,3.2838851964140111871,0.046949815812120130664,5.1084708393126914256,0.17472071153843454212,15.652356638499464609
0.01900000000000001,3.2839334589816268114,0.04957578375236624098,5.1086504137111483047,0.18442810343771008527,15.652356638499464616
0.02000000000000001,3.2839843489352801144,0.05220461298515084358,5.108839695556672778,0.19413560665492683587,15.6523566384994646215
0.02100000000000001,3.2840378692115564112,0.054836454095780441684,5.1090386849635274114,0.20384322708004861683,15.6523566384994646215
0.022000000000000013,3.2840940228976255647,0.057471457668024740457,5.1092473820518668984,0.21355097060738976699,15.652356638499464625
0.023000000000000013,3.2841528132312403914,0.060109774284003024733,5.1094657869477424703,0.22325884313572316667,15.652356638499464629
0.024000000000000014,3.284214243600734953,0.06275155452406509126,5.1096938997831063975,0.2329668505683722315,15.652356638499464635
0.025000000000000015,3.2842783175450227236,0.06539694896666646119,5.1099317206958165837,0.24267499881328610971,15.652356638499464635
0.026000000000000016,3.2843450387535946325,0.06804610818823759653,5.1101792498296412163,0.25238329378309731714,15.652356638499464638
0.027000000000000017,3.2844144110665169697,0.07069918276304684208,5.110436487334263476,0.2620917413951610447,15.6523566384994646415
0.028000000000000018,3.284486438474429153,0.07335632326305681223,5.110703433365286269,0.2718003475715753724,15.6523566384994646415
0.02900000000000002,3.2845611251185413476,0.07601768025777393941,5.1109800880842369717,0.28150911823918162364,15.652356638499464641
0.03000000000000002,3.2846384752906319314,0.07868340431409089883,5.1112664516585721657,0.29121805932954409346,15.652356638499464642
0.03100000000000002,3.2847184934330448,0.081353645996121621364,5.111562524261682342,0.30092717677890838454,15.652356638499464644
0.03200000000000002,3.284801184138686501,0.084028555865028604045,5.111868306072896553,0.3106364765281375831,15.652356638499464648
0.03300000000000002,3.2848865521510231956,0.08670828447884222471,5.1121837972774869874,0.32034596452262550828,15.652356638499464649
0.03400000000000002,3.2849746023640774297,0.089392982392271764634,5.1125089980666734474,0.33005564671218626713,15.65235663849946465
0.035000000000000024,3.2850653398224247156,0.092082800156507840194,5.1128439086376277047,0.3397655290509193472,15.652356638499464653
0.036000000000000025,3.2851587697211899126,0.094777888319015941385,5.1131885291934777078,0.3494756174970494788,15.6523566384994646545
0.037000000000000026,3.2852548974060433924,0.097478397423320772215,5.1135428599433116153,0.35918591801274049808,15.652356638499464659
0.03800000000000003,3.2853537283731969877,0.10018447800878108464,5.113906901102181633,0.36889643656388244254,15.6523566384994646606
0.03900000000000003,3.2854552682693997099,0.10289628061035469449,5.11428065289110762,0.37860717911985110912,15.652356638499464661
0.04000000000000003,3.285559522891933226,0.10561395575835336474,5.1146641155370804422,0.3883181516532393059,15.652356638499464667
0.04100000000000003,3.2856664981886070853,0.108337653978187237536,5.1150572892730650464,0.3980293601395590269,15.652356638499464668
0.04200000000000003,3.2857762002577536864,0.11106752579009849352,5.115460174338003214,0.40774081055691378033,15.652356638499464667
0.04300000000000003,3.2858886353482229705,0.11380372170888391294,5.1158727709768159774,0.41745250888564029872,15.652356638499464669
0.04400000000000003,3.286003809859376833,0.116546392243606009474,5.116295079440405663,0.42716446110791886075,15.6523566384994646675
0.04500000000000003,3.2861217303410832403,0.119295687897292404075,5.1167270999856575226,0.43687667320735145272,15.652356638499464669
0.046000000000000034,3.2862424034937100395,0.12205175916662310205,5.1171688328754409347,0.446589151168506998,15.65235663849946467
0.047000000000000035,3.286365836168118448,0.124814756541605332905,5.1176202783786101267,0.45630190097643288203,15.6523566384994646744
0.048000000000000036,3.2864920353656562146,0.12758483050523560822,5.1180814367700043976,0.46601492861613200055,15.652356638499464675
0.04900000000000004,3.2866210082381504326,0.130362131533148649,5.1185523083304477945,0.47572824007200455754,15.6523566384994646805
0.05000000000000004,3.2867527620878999985,0.13314681009325282948,5.119032893346748219,0.48544184132725383965,15.652356638499464679
0.05100000000000004,3.2868873043676676972,0.13593901664535178028,5.1195231921116959137,0.49515573836325519298,15.652356638499464683
0.05200000000000004,3.287024642680671901,0.13873890164075178948,5.120023204924061308,0.50486993715888742813,15.652356638499464686
0.05300000000000004,3.2871647847805778716,0.1415466155218546356,5.1205329320885921676,0.51458444368982587827,15.652356638499464687
0.05400000000000004,3.2873077385714886446,0.14436230872173548204,5.121052373916010023,0.52429926392779633567,15.652356638499464687
0.05500000000000004,3.2874535121079354856,0.14718613166370545818,5.1215815307230058294,0.5340144038397890902,15.652356638499464689
0.05600000000000004,3.2876021135948679014,0.15001823476085854718,5.1221204028322348226,0.54372986938723229456,15.652356638499464691
0.057000000000000044,3.2877535513876431897,0.15285876841560239623,5.1226689905723105252,0.55344566652512387924,15.652356638499464689
0.058000000000000045,3.287907833992015511,0.15570788301917266014,5.1232272942777978644,0.56316180120112123994,15.652356638499464693
0.059000000000000045,3.288064970064124466,0.15856572895113048379,5.1237953142892053602,0.572878279354587921,15.652356638499464695
0.060000000000000046,3.2882249684104831644,0.1614324565788427249,5.124373050952976335,0.5825951069155965159,15.652356638499464699
0.06100000000000005,3.2883878379879657617,0.16430821625694451245,5.1249605046214791074,0.59231228980388700726,15.652356638499464699
0.06200000000000005,3.2885535879037944523,0.16719315832678373179,5.1255576756529961165,0.60202983392777976697,15.652356638499464698
0.06300000000000004,3.288722227415525897,0.17008743311584702218,5.1261645644117119426,0.6117477451830424386,15.652356638499464702
0.06400000000000004,3.2888937659310370657,0.17299119093716686662,5.1267811712677001687,0.6214660294517099205,15.652356638499464703
0.06500000000000004,3.2890682130085104789,0.17590458208870934945,5.1274074965969090355,0.63118469260085667126,15.652356638499464707
0.06600000000000004,3.2892455783564188286,0.17882775685274215102,5.128043540781145849,0.6409037404813205563,15.652356638499464712
0.06700000000000005,3.289425871833508954,0.18176086549518234354,5.1286893042080600835,0.6506231789263774546,15.65235663849946472
0.06800000000000005,3.2896091034487851565,0.18470405826492354699,5.12934478727112514,0.6603430137503658448,15.6523566384994647195
0.06900000000000005,3.289795283361491831,0.18765748539314199783,5.1300099903696186935,0.67006325074726058865,15.652356638499464722
0.07000000000000005,3.2899844218810953929,0.19062129709258107776,5.1306849139086016004,0.67978389568919512907,15.652356638499464726
0.07100000000000005,3.2901765294672654782,0.1935956435568138445,5.1313695582988952944,0.6895049543249313217,15.65235663849946473
0.07200000000000005,3.2903716167298553954,0.19658067495948310006,5.1320639239570576273,0.6992264323782761158,15.652356638499464735
0.07300000000000005,3.2905696944288818052,0.19957654145351852653,5.1327680113053571007,0.7089483355464443013,15.652356638499464743
0.07400000000000005,3.2907707734745036056,0.2025833931703304135,5.133481820771745433,0.71867066949836653963,15.652356638499464749
0.07500000000000005,3.290974864927000002,0.20560138021897949519,5.1342053527898284045,0.72839343987294189207,15.6523566384994647525
0.07600000000000005,3.2911819799967477298,0.20863065268532240908,5.13493860779883493,0.7381166522772340635,15.652356638499464752
0.07700000000000005,3.2913921300441974132,0.21167136063113228231,5.1356815862435842967,0.7478403122846105753,15.6523566384994647525
0.07800000000000006,3.2916053265798490325,0.21472365409319394536,5.1364342885744515145,0.75756442543282408305,15.6523566384994647525
0.07900000000000006,3.2918215812642264717,0.2177876830823732668,5.1371967152473307174,0.7672889972220350535,15.652356638499464755
0.08000000000000006,3.2920409059078511236,0.22086359758266009615,5.1379688667235965576,0.7770140331127750152,15.65235663849946476
0.08100000000000006,3.2922633124712145246,0.22395154755018429637,5.1387507434700635325,0.78673953852384959724,15.652356638499464765
0.08200000000000006,3.2924888130647499893,0.22705168291220434007,5.1395423459589431874,0.7964655188301805688,15.652356638499464766
0.08300000000000006,3.2927174199488032248,0.2301641535660679381,5.1403436746677991227,0.806191979360586095,15.652356638499464769
0.08400000000000006,3.2929491455336018853,0.23328910937814416225,5.1411547300794997583,0.8159189253954984202,15.6523566384994647725
0.08500000000000006,3.2931840023792240501,0.23642670018272651725,5.1419755126821687784,0.82564636216461819427,15.652356638499464778
0.08600000000000006,3.2934220031955655855,0.23957707578090641103,5.142806022969133201,0.835374294844504653,15.6523566384994647785
0.08700000000000006,3.2936631608423063674,0.24274038593941646523,5.143646261438869004,0.84510272855610086645,15.652356638499464778
0.08800000000000006,3.2939074883288753319,0.24591678038944310177,5.1444962285949442436,0.8548316683621932679,15.652356638499464779
0.08900000000000007,3.2941549988144143213,0.2491064088254078341,5.145355924945959601,0.8645611192648046761,15.652356638499464786
0.09000000000000007,3.2944057056077406978,0.25230942090371668568,5.1462253510054862884,0.8742910862025200233,15.652356638499464793
0.09100000000000007,3.2946596221673086888,0.2555259662414771507,5.147104507292001243,0.8840215740477440014,15.652356638499464799
0.09200000000000007,3.2949167621011694323,0.25875619441518210622,5.147993394328819548,0.89375258760388983997,15.652356638499464807
0.09300000000000007,3.2951771391669296917,0.26200025495936007743,5.148892012644024007,0.90348413160249842733,15.652356638499464812
0.09400000000000007,3.2954407672717092007,0.26525829736519125087,5.149800362770391802,0.9132162107002869883,15.652356638499464818
0.09500000000000007,3.2957076604720966094,0.26853047107908862423,5.150718445245318163,0.9229488294761265313,15.652356638499464826
0.09600000000000007,3.2959778329741039932,0.27181692550124367382,5.1516462606107369824,0.9326819924279472774,15.65235663849946483
0.09700000000000007,3.2962512991331198889,0.27511780998413591426,5.1525838094130382953,0.942415703969571285,15.652356638499464832
0.09800000000000007,3.2965280734538608214,0.27843327383100571756,5.153531092202982557,0.95214996842747148353,15.6523566384994648375
0.09900000000000007,3.2968081705903212865,0.28176346629428975272,5.154488109535611644,0.96188479003745632915,15.652356638499464844
0.10000000000000007,3.2970916053457221487,0.2851085365740183988,5.1554548619701564987,0.97162017294127929755,15.652356638499464847
0.10100000000000008,3.2973783926724574175,0.28846863381617447844,5.156431350069941348,0.98135612118317242696,15.652356638499464855
0.10200000000000008,3.2976685476720393627,0.2918439071110126516,5.1574175744022844182,0.99109263870630312764,15.65235663849946486
0.10300000000000008,3.2979620855950419294,0.2952345054913388015,5.158413535538395064,1.0008297293491534717,15.652356638499464867
0.10400000000000008,3.298259021841042412,0.29864057793074873899,5.1594192340532672426,1.0105673968418211801,15.652356638499464876
0.10500000000000008,3.2985593719585613467,0.30206227334182554346,5.160434670525569245,1.0203056448022415224,15.6523566384994648835
0.10600000000000008,3.298863151645000579,0.3054997405742948525,5.161459845537529613,1.0300444767323293479,15.65235663849946489
0.10700000000000008,3.2991703767465794673,0.3089531284131374038,5.1624947596748191544,1.0397838960140404629,15.652356638499464899
0.10800000000000008,3.299481063258269175,0.31242258557665812804,5.1635394135264289827,1.0495239059053515766,15.652356638499464904
0.10900000000000008,3.2997952273237250117,0.31590826071451108225,5.164593807684544491,1.0592645095361580314,15.6523566384994649164
0.11000000000000008,3.300112885235216776,0.3194103024056795078,5.165657942744415189,1.0690057099040885402,15.652356638499464922
0.11100000000000008,3.3004340534335570559,0.32292885915641028925,5.1667318193042203046,1.078747509870236151,15.652356638499464931
0.11200000000000009,3.300758748508027439,0.32646407939810208364,5.1678154379649300816,1.0884899121548046617,15.652356638499464937
0.11300000000000009,3.3010869871963025902,0.33001611148514638293,5.1689087993301626764,1.0982329193326697076,15.652356638499464946
0.11400000000000009,3.3014187863843721458,0.33358510369272076498,5.1700119040060365755,1.1079765338288537472,15.652356638499464957
0.11500000000000009,3.3017541631064603743,0.3371712042145335819,5.1711247526010184427,1.1177207579139141727,15.652356638499464968
0.11600000000000009,3.3020931345449435598,0.34077456116051932762,5.172247345725766314,1.1274655936992437705,15.652356638499464972
0.11700000000000009,3.3024357180302650555,0.3443953225544839197,5.1733796839929680413,1.1372110431322827629,15.652356638499464983
0.11800000000000009,3.3027819310408479548,0.34803363633169912306,5.1745217680171749154,1.14695710799164166,15.652356638499464992
0.11900000000000009,3.3031317912030053355,0.35168965033644533744,5.175673598414630356,1.1567037898821341549,15.652356638499464993
0.12000000000000009,3.3034853162908480158,0.355363512319501963,5.176835175803093592,1.1664510902297192939,15.652356638499464999
0.1210000000000001,3.3038425242261897775,0.35905536993558455133,5.1780065008016582452,1.1761990102763521604,15.652356638499465006
0.1220000000000001,3.304203433078449997,0.3627653707407279441,5.1791875740305657093,1.1859475510747423077,15.6523566384994650144
0.1230000000000001,3.3045680610645536363,0.36649366218961459274,5.1803783961110132458,1.1956967134830191814,15.652356638499465028
0.1240000000000001,3.304936426548828528,0.37024039163284724774,5.181578967664956699,1.2054464981593037733,15.652356638499465034
0.12500000000000008,3.3053085480428999107,0.37400570631416519863,5.182789289314907731,1.2151969055561857503,15.652356638499465039
0.12600000000000008,3.305684444205582149,0.37778975336760324,5.1840093616837254913,1.2249479359151053059,15.65235663849946505
0.12700000000000009,3.3060641338427675842,0.3815926798145925317,5.185239185394402619,1.2346995892606389827,15.6523566384994650596
0.12800000000000009,3.3064476359073124577,0.38541463256100251563,5.18647876106984548,1.2444518653946887174,15.652356638499465065
0.1290000000000001,3.3068349694989198437,0.38925575839412304515,5.187728089332648547,1.2542047638905733637,15.652356638499465069
0.1300000000000001,3.307226153864019537,0.3931162039795858765,5.1889871708048628213,1.2639582840870219501,15.652356638499465079
0.1310000000000001,3.307621208395644829,0.3969961158582246666,5.1902560061077581987,1.2737124250820679329,15.652356638499465086
0.1320000000000001,3.3080201526333061137,0.4008956404428726141,5.1915345958615796793,1.2834671857268437087,15.6523566384994650925
0.1330000000000001,3.3084230062628612607,0.40481492401509687614,5.192822940685297321,1.2932225646192746525,15.652356638499465103
0.1340000000000001,3.308829789116382689,0.40875411272186888584,5.19412104119634984,1.3029785600976719534,15.652356638499465108
0.1350000000000001,3.309240521172021079,0.41271335257216969165,5.1954288980103817456,1.3127351702342235202,15.6523566384994651185
0.1360000000000001,3.3096552225538656581,0.41669278943352943223,5.1967465117409739257,1.3224923928283822373,15.65235663849946513
0.1370000000000001,3.3100739135318009915,0.42069256902850005607,5.1980738829993675585,1.3322502254001508501,15.652356638499465144
0.1380000000000001,3.3104966145213602122,0.42471283693106038972,5.1994110123941812644,1.3420086651832627686,15.65235663849946515
0.1390000000000001,3.3109233460835746218,0.42875373856295265223,5.20075790053112138,1.3517677091182580765,15.652356638499465157
0.1400000000000001,3.3113541289248195935,0.43281541918994950917,5.202114548012685261,1.3615273538454540451,15.652356638499465168
0.1410000000000001,3.3117889838966567064,0.43689802391805075422,5.203480955437857502,1.3712875956978094461,15.652356638499465176
0.1420000000000001,3.3122279319956720418,0.44100169768960870105,5.204857123401798961,1.381048430693681972,15.652356638499465187
0.1430000000000001,3.312670994363310568,0.445126585279381364,5.206243052495528498,1.390809854529478072,15.6523566384994652
0.1440000000000001,3.3131181922857065422,0.44927283129051250076,5.2076387433055972994,1.4005718625721945155,15.652356638499465211
0.1450000000000001,3.3135695471935098552,0.45344058015043758647,5.2090441964137556953,1.4103344498518510096,15.652356638499465217
0.1460000000000001,3.3140250806617082462,0.45762997610671478333,5.210459412396612352,1.4200976110538131868,15.652356638499465222
0.1470000000000001,3.314484814409445307,0.4618411632227799666,5.2118843918252857343,1.4298613405110053045,15.652356638499465233
0.1480000000000001,3.3149487702998342077,0.46607428537362486298,5.2133191352650477247,1.4396256321960119851,15.652356638499465248
0.1490000000000001,3.3154169703397670574,0.47032948624139735424,5.2147636432749592886,1.4493904797130683467,15.65235663849946526
0.1500000000000001,3.315889436679719829,0.4746069093109229944,5.2162179164074980713,1.4591558762899378706,15.652356638499465273
0.1510000000000001,3.3163661916135527632,0.4789066978651467859,5.2176819552081778195,1.468921814769677364,15.652356638499465284
