t,phi1,v1,phi2,v2,energy
0.0,4.5575336439865905547,0.0,2.9287052323137237053,0.0,12.614671777209261278
0.001,4.557538468353889769,0.009648735597770117244,2.9287044757931360104,-0.001513017876546996092,12.614671777209261262
0.002,4.5575529414617839017,0.019297483189242723827,2.9287022063711660557,-0.0030257561667148597847,12.614671777209261246
0.003,4.5575770633282667367,0.028946254776734816132,2.9286984244671939392,-0.0045379352827135415475,12.61467177720926125
0.004,4.557610833983342273,0.038595062379791164244,2.9286931307801888423,-0.006049275633929956383,12.614671777209261237
0.005,4.5576542534690462536,0.048243918043795097734,2.9286863262887125607,-0.0075594976255134636563,12.614671777209261221
0.006,4.5577073218394763116,0.05789283384857557034,2.9286780122509244498,-0.009068321656957745442,12.61467177720926121
0.007,4.5577700391608307164,0.067541821917009263426,2.928668190204587792,-0.010575468120677885078,12.614671777209261199
0.008,4.5578424055114557193,0.07719089442361648832,2.928656861967077589,-0.012080657400581449672,12.614671777209261199
0.009000000000000001,4.557924420981901494,0.08684006360314964806,2.9286440296353897865,-0.013583609870632382713,12.614671777209261187
0.010000000000000002,4.5580160856749866566,0.09648934175917301912,2.9286296955861519404,-0.015084045893406515825,12.614671777209261177
0.011000000000000003,4.558117399705871365,0.106138741272632614424,2.928613862475635329,-0.016581685818637512218,12.6146717772092611665
0.012000000000000004,4.5582283632021389805,0.11578827461041488917,2.928596533239768529,-0.01807624998175205815,12.6146717772092611595
0.013000000000000005,4.558348976303886283,0.12543795433389305162,2.9285777110941524578,-0.019567458702393123176,12.614671777209261145
0.014000000000000005,4.5584792391638222246,0.13508779310745974147,2.9285573995340769022,-0.021055032282930114854,12.614671777209261138
0.015000000000000006,4.5586191519473752086,0.14473780370704483917,2.9285356023345385432,-0.022538691006954758877,12.61467177720926114
0.016000000000000007,4.5587687148328088827,0.15438799902861717001,2.92851232355026049,-0.024018155137761541483,12.614671777209261123
0.017000000000000008,4.5589279280113464156,0.16403839209666886784,2.9284875675157133463,-0.025493144916811557282,12.61467177720926111
0.01800000000000001,4.5590967916873032587,0.17368899607268116344,2.9284613388451378178,-0.02696338056217861258,12.614671777209261113
0.01900000000000001,4.5592753060782283607,0.18333982426357036443,2.928433642432568884,-0.028428582266976441408,12.614671777209261111
0.02000000000000001,4.5594634714150538146,0.19299089013011279298,2.9284044834518615549,-0.029888470197765899375,12.614671777209261104
0.02100000000000001,4.559661287942252922,0.20264220729534745005,2.928373867356718226,-0.03134276449294100876,12.614671777209261094
0.022000000000000013,4.5598687559180066465,0.21229378955295517446,2.9283417998807176647,-0.032791185261092736946,12.614671777209261076
0.023000000000000013,4.5600858756143784357,0.22194565087561306722,2.9283082870373456379,-0.034233452579349399567,12.614671777209261066
0.024000000000000014,4.5603126473174973835,0.23159780542332295161,2.9282733351200272167,-0.035669286491692589576,12.614671777209261068
0.025000000000000015,4.5605490713277497096,0.24125026755171264127,2.9282369507021607758,-0.037098407007247543504,12.61467177720926106
0.026000000000000016,4.5607951479599785215,0.25090305182030878911,2.9281991406371537141,-0.038520534098546867032,12.614671777209261048
0.027000000000000017,4.561050877543691839,0.26055617300078009148,2.9281599120584599295,-0.03993538769976655313,12.614671777209261028
0.028000000000000018,4.561316260423278843,0.2702096460851496228,2.9281192723796190664,-0.041342687704933237743,12.614671777209261026
0.02900000000000002,4.5615912969582343268,0.27986348629397507702,2.9280772292942975762,-0.042742153966101650124,12.614671777209261033
0.03000000000000002,4.5618759875233913046,0.28951770908449569414,2.928033790776331612,-0.044133506291501227575,12.614671777209261033
0.03100000000000002,4.562170332509161752,0.29917233015874464998,2.9279889650797717947,-0.045516464443650877542,12.6146717772092610225
0.03200000000000002,4.56247433232178544,0.30882736547162569009,2.9279427607389298793,-0.046890748137440883668,12.614671777209261014
0.03300000000000002,4.562787987383586832,0.3184828312389527889,2.9278951865684273567,-0.048256077038180966412,12.6146717772092609965
0.03400000000000002,4.5631112981332399947,0.32813874394545161704,2.9278462516632460246,-0.049612170759613523482,12.614671777209260981
0.035000000000000024,4.5634442650260414955,0.33779512035272160047,2.9277959653987805633,-0.050958748861891090535,12.614671777209260979
0.036000000000000025,4.563786888534191242,0.34745197750715735763,2.9277443374308931518,-0.052295530849517077966,12.614671777209260969
0.037000000000000026,4.5641391691470812168,0.35710933274782830004,2.9276913776959701623,-0.053622236169248855828,12.61467177720926097
0.03800000000000003,4.5645011073715920785,0.36676720371431518547,2.927637096410980971,-0.054938584207962275398,12.614671777209260964
0.03900000000000003,4.5648727037323975696,0.37642560835450241213,2.9275815040735389235,-0.056244294290476732968,12.614671777209260958
0.04000000000000003,4.565253958772276699,0.3860845649323248448,2.9275246114619644954,-0.05753908567733989884,12.614671777209260939
0.04100000000000003,4.5656448730524336454,0.3957440920354679649,2.9274664296353506896,-0.058822677562571252734,12.614671777209260929
0.04200000000000003,4.566045447152825339,0.40540420858302013725,2.9274069699336307088,-0.060094789071363585037,12.614671777209260923
0.04300000000000003,4.56645568167249667,0.41506493383307578802,2.9273462439776479504,-0.061355139257741642446,12.614671777209260924
0.04400000000000003,4.566875577229923276,0.42472628739028829,2.9272842636692283625,-0.06260344710217711599,12.614671777209260912
0.04500000000000003,4.567305134463361854,0.43438828921337135146,2.927221041191255209,-0.06383943150915918934,12.614671777209260907
0.046000000000000034,4.5677443540312079513,0.44405095962254770718,2.9271565890077462851,-0.06506281130471988572,12.614671777209260906
0.047000000000000035,4.568193236612361176,0.45371431930694391051,2.9270909198639336304,-0.06627330523391347268,12.614671777209260899
0.048000000000000036,4.568651782906597775,0.46337838933193002713,2.927024046786345787,-0.06747063195824920532,12.614671777209260896
0.04900000000000004,4.569119993634950524,0.47304319114640303208,2.926955983082892648,-0.06865451005307671054,12.6146717772092608915
0.05000000000000004,4.5695978695400958727,0.4827087465900127123,2.9268867423429529438,-0.06982465800492333712,12.61467177720926088
0.05100000000000004,4.5700854113867482855,0.4923750779003288786,2.9268163384374644167,-0.07098079420878281936,12.614671777209260872
0.05200000000000004,4.5705826199620617203,0.50204220771994869136,2.9267447855190167293,-0.0721226369653546254,12.614671777209260872
0.05300000000000004,4.571089496076038185,0.51171015910354290546,2.9266720980219471618,-0.07324990447823338495,12.61467177720926087
0.05400000000000004,4.5716060405619433084,0.5213789555248398407,2.9265982906624391415,-0.0743623148510478157,12.614671777209260852
0.05500000000000004,4.5721322542767288597,0.531048620883545885,2.9265233784386236616,-0.075459586084548592265,12.614671777209260849
0.05600000000000004,4.5726681381014621657,0.5407191795122013376,2.9264473766306836366,-0.07654143607364462701,12.6146717772092608455
0.057000000000000044,4.573213692941762342,0.5503906561829704013,2.9263703008009612468,-0.077607582604387257535,12.614671777209260827
0.058000000000000045,4.5737689197282432826,0.560063076114364132,2.9262921667940683269,-0.07865774335090186219,12.614671777209260825
0.059000000000000045,4.574333819416963344,0.569736464977895156,2.9262129907369998467,-0.079691635872266451463,12.614671777209260812
0.060000000000000046,4.5749083929898816405,0.57941084890466296333,2.926132789039250543,-0.080708977609336810335,12.614671777209260808
0.06100000000000005,4.5754926414553208996,0.58908625449186858907,2.9260515783929347505,-0.08170948588151779454,12.614671777209260794
0.06200000000000005,4.5760865658484367853,0.5987627088092574913,2.9259693757729094907,-0.08269287788348041159,12.614671777209260787
0.06300000000000004,4.5766901672316936383,0.60844023940548943723,2.9258861984369008689,-0.083658870681824346364,12.614671777209260784
0.06400000000000004,4.5773034466953465417,0.61811887431443420687,2.9258020639256338378,-0.08460718121168561987,12.6146717772092607866
0.06500000000000004,4.5779264053579296493,0.627798642061391926,2.9257169900629653796,-0.08553752627328909985,12.614671777209260784
0.06600000000000004,4.5785590443667506925,0.63747957166923683626,2.925630994956021165,-0.08644962252844561152,12.614671777209260778
0.06700000000000005,4.579201364898391595,0.64716169266448331427,2.9255440969953357406,-0.08734318649699342783,12.614671777209260774
0.06800000000000005,4.579853368159215112,0.65684503508327294724,2.9254563148549963057,-0.08821793455318394923,12.6146717772092607805
0.06900000000000005,4.5805150553858774206,0.6665296294772814741,2.9253676674927901278,-0.089073582922011415015,12.614671777209260783
0.07000000000000005,4.5811864278458465697,0.6762155069195444005,2.9252781741503556588,-0.0899098476754865198,12.6146717772092607866
0.07100000000000005,4.581867486837926721,0.6859026990102000928,2.9251878543533374063,-0.09072644472885384176,12.614671777209260785
0.07200000000000005,4.582558233692788086,0.69559123788214915877,2.9250967279115446128,-0.091523089836753021936,12.614671777209260791
0.07300000000000005,4.5832586697735024864,0.70528115620662891813,2.9250048149191138049,-0.092299498589323667566,12.614671777209260795
0.07400000000000005,4.5839687964760844393,0.7149724871987017662,2.9249121357546752629,-0.093055386408253986375,12.614671777209260789
0.07500000000000005,4.5846886152300376895,0.7246652646226562328,2.9248187110815234728,-0.093790468542773193286,12.614671777209260788
0.07600000000000005,4.5854181274989071018,0.7343595227973195352,2.9247245618477916112,-0.0945044600655877658,12.6146717772092607935
0.07700000000000005,4.586157334780835817,0.7440552966012804243,2.9246297092866301243,-0.09519707586876166005,12.61467177720926081
0.07800000000000006,4.5869062386091275893,0.75375262147802111855,2.9245341749163894526,-0.09586803065954063526,12.614671777209260808
0.07900000000000006,4.587664840552814204,0.7634515334409571201,2.9244379805408069611,-0.096517038956120870754,12.614671777209260799
0.08000000000000006,4.5884331422172278925,0.77315206907838370345,2.9243411482491981274,-0.09714381508336209684,12.614671777209260807
0.08100000000000006,4.58921114524457865,0.7828542655583278658,2.9242437004166520445,-0.09774807316844549795,12.614671777209260801
0.08200000000000006,4.589998851314536347,0.79255816063330452345,2.924145659704231293,-0.09832952713647668455,12.6146717772092608004
0.08300000000000006,4.5907962621448175607,0.8022637926449757383,2.9240470490591762382,-0.09888789070603406867,12.614671777209260799
0.08400000000000006,4.5916033794917770075,0.81197120052871175157,2.923947891715113806,-0.0994228773846630168,12.614671777209260797
0.08500000000000006,4.592420205151003491,0.8216804238180526017,2.923848211192270791,-0.09993420046431619305,12.614671777209260805
0.08600000000000006,4.5932467409579202625,0.8313915026490690976,2.9237480312976917515,-0.100421573016740545783,12.614671777209260802
0.08700000000000006,4.5940829887883896866,0.84110447776462191543,2.9236473761254615437,-0.10088470788881143068,12.614671777209260804
0.08800000000000006,4.594928950559322121,0.850819390518517582,2.9235462700569325475,-0.10132331769781440462,12.614671777209260801
0.08900000000000007,4.595784628229288894,0.86053628287956010365,2.9234447377609566385,-0.10173711482667526559,12.614671777209260801
0.09000000000000007,4.5966500237991392863,0.8702551974354969961,2.9233428041941219514,-0.102125811419138956,12.614671777209260803
0.09100000000000007,4.5975251393126214013,0.87997617739685846317,2.9232404946009944958,-0.10248911937489798889,12.6146717772092608134
0.09200000000000007,4.5984099768570068237,0.8896992666006884694,2.9231378345143646626,-0.10282675034467109936,12.614671777209260826
0.09300000000000007,4.5993045385637189534,0.8994245095141664446,2.92303484975549868,-0.103138415725232866936,12.614671777209260824
0.09400000000000007,4.600208826608964903,0.90915195123811835386,2.922931566434395063,-0.10342382665439509822,12.614671777209260833
0.09500000000000007,4.601122843214370857,0.9188816375104158582,2.9228280109500461052,-0.103682694005940803624,12.6146717772092608325
0.09600000000000007,4.6020465906476207677,0.92861361470926228825,2.922724209990704459,-0.10391472838451164648,12.614671777209260834
0.09700000000000007,4.602980071223098283,0.93834792985636414304,2.9226201905341548542,-0.1041196401204497885,12.614671777209260831
0.09800000000000007,4.603923287302531787,0.94808463061998682103,2.9225159798479909937,-0.104297139264595100915,12.614671777209260828
0.09900000000000007,4.604876241295642437,0.95782376531789328405,2.922411605489897676,-0.104446935583038757125,12.614671777209260834
0.10000000000000007,4.605838935660795084,0.96756538292016434417,2.922307095307938184,-0.104568738551834269264,12.614671777209260835
0.10100000000000008,4.6068113729056519474,0.9773095330518992595,2.922202477440846987,-0.104662257351667078584,12.614671777209260833
0.10200000000000008,4.6077935555878289354,0.98705626599579531383,2.9220977803183277874,-0.10472720086248385702,12.614671777209260845
0.10300000000000008,4.608785486315554482,0.99680563269460504807,2.9219930326613569635,-0.104763277658082725785,12.614671777209260853
0.10400000000000008,4.609787167748330779,1.0065576847534698022,2.9218882634824924378,-0.10477019600066564529,12.61467177720926086
0.10500000000000008,4.6107986025975972785,1.016312474442128217,2.921783502086188013,-0.104747663835354280286,12.614671777209260866
0.10600000000000008,4.611819793627396343,1.0260700546969983365,2.9216787780691132073,-0.1046953887846706935,12.614671777209260876
0.10700000000000008,4.612850743655040913,1.0358304791231319406,2.9215741213204786308,-0.10461307814298427156,12.614671777209260885
0.10800000000000008,4.6138914555517840624,1.0455938019960397283,2.9214695620223669257,-0.104500438870926337455,12.614671777209260899
0.10900000000000008,4.6149419322434903183,1.0553600782633859626,2.92136513065006931,-0.10435717758977395524,12.614671777209260915
0.11000000000000008,4.6160021767113086047,1.0651293635465511728,2.9212608579724277538,-0.10418300057580448432,12.614671777209260927
0.11100000000000008,4.617072191992346686,1.0749017141420615061,2.9211567750521828123,-0.10397761375462249276,12.614671777209260929
0.11200000000000009,4.6181519811803469697,1.0846771870228833014,2.9210529132463271458,-0.10374072269546069207,12.614671777209260931
0.11300000000000009,4.6192415474263635376,1.0944558398395814513,2.9209493042064647516,-0.10347203260545660879,12.614671777209260944
0.11400000000000009,4.620340893939440268,1.1042377309213401039,2.92084597987917593,-0.103171248323906762245,12.6146717772092609635
0.11500000000000009,4.6214500239872899063,1.1140229192768442431,2.9207429725063880081,-0.10283807431650017172,12.614671777209260988
0.11600000000000009,4.6225689408969739477,1.1238114645950206753,2.9206403146257518366,-0.10247221466953307139,12.614671777209261001
0.11700000000000009,4.6236976480555831903,1.133603427245636935,2.920538039071024084,-0.102073373084106766215,12.61467177720926101
0.11800000000000009,4.6248361489109188153,1.1433988682797566074,2.9204361789724553372,-0.101641252870310617994,12.614671777209261025
0.11900000000000009,4.6259844469721738518,1.1531978494300495554,2.9203347677571840294,-0.10117555694139220676,12.61467177720926104
0.12000000000000009,4.6271425458106148756,1.1630004331109555195,2.9202338391496361998,-0.10067598780791676958,12.614671777209261058
0.1210000000000001,4.6283104490602638005,1.1728066824186995483,2.9201334271719310996,-0.100142247571918075876,12.614671777209261072
0.1220000000000001,4.629488160418579608,1.1826166611311576987,2.9200335661442926533,-0.099574037921042956185,12.614671777209261079
0.1230000000000001,4.6306756836471398685,1.1924304337075714319,2.9199342906854667717,-0.098971060122691759527,12.614671777209261085
0.1240000000000001,4.6318730225723218994,1.2022480652881091129,2.9198356357131445315,-0.09833301501815707304,12.614671777209261097
0.12500000000000008,4.63308018108598341,1.2120696216932730073,2.9197376364443912125,-0.09765960301676309685,12.614671777209261118
0.12600000000000008,4.6342971631461424746,1.2218951694231501483,2.9196403283960811958,-0.0969505240900081269,12.614671777209261128
0.12700000000000009,4.635523972777656674,1.2317247756565054376,2.9195437473853387152,-0.09620547776571265841,12.614671777209261136
0.12800000000000009,4.636760614072901254,1.2415585082497153134,2.9194479295299844586,-0.095424163122175683514,12.61467177720926116
0.1290000000000001,4.638007091192446141,1.2513964357355403163,2.9193529112489880058,-0.094606278782341817614,12.61467177720926118
0.1300000000000001,4.6392634083657316403,1.2612386273217348508,2.9192587292629260953,-0.09375152290798195066,12.614671777209261204
0.1310000000000001,4.6405295698917426667,1.2710851528894924327,2.9191654205944467,-0.092859593193890181714,12.614671777209261228
0.1320000000000001,4.64180558013968134,1.2809360829917246857,2.9190730225687388979,-0.091930186862099857733,12.614671777209261234
0.1330000000000001,4.6430914435496377676,1.2907914888511723368,2.9189815728140085156,-0.090963000656121600524,12.614671777209261253
0.1340000000000001,4.6443871646332588643,1.3006514423583464343,2.9188911092619595226,-0.08995773083520626944,12.614671777209261264
0.1350000000000001,4.6456927479744150175,1.3105160160692979987,2.9188016701482811474,-0.088914073168635871364,12.614671777209261277
0.1360000000000001,4.6470081982298644414,1.320385283203214288,2.9187132940131406875,-0.0878317229300454941,12.614671777209261297
0.1370000000000001,4.6483335201299150388,1.3302593176398398466,2.9186260197016819827,-0.08671037489177940414,12.614671777209261319
0.1380000000000001,4.649668718479083595,1.3401381939167204778,2.9185398863645295113,-0.08554972331928451527,12.614671777209261342
0.1390000000000001,4.651013798156752126,1.3500219872262682621,2.918454933458298074,-0.08434946196554450037,12.614671777209261359
0.1400000000000001,4.652368764117821202,1.359910773412645722,2.918371200746108022,-0.083109284065557885095,12.614671777209261378
0.1410000000000001,4.6537336213933600646,1.3698046289684672065,2.9182887282981059846,-0.081828882330863528885,12.614671777209261396
0.1420000000000001,4.655108375091253352,1.3797036310313155527,2.9182075564919910432,-0.08050794894411696606,12.614671777209261417
0.1430000000000001,4.6564930303968442475,1.3896078573800720507,2.9181277260135463055,-0.079146175553721147385,12.6146717772092614405
0.1440000000000001,4.657887592573573867,1.3995173864310577218,2.9180492778571758175,-0.077743253268515190664,12.614671777209261452
0.1450000000000001,4.6592920669636166855,1.4094322972339838898,2.9179722533264467585,-0.07629887265252481732,12.614671777209261465
0.1460000000000001,4.6607064589885118253,1.4193526694677100039,2.9178966940346368515,-0.074812723719778221265,12.614671777209261498
0.1470000000000001,4.6621307741497900034,1.4292785834358066469,2.9178226419052869247,-0.073284495929191185245,12.6146717772092615325
0.1480000000000001,4.6635650180295959402,1.4392101200619216364,2.9177501391727585496,-0.07171387817952533003,12.614671777209261549
0.1490000000000001,4.6650091962913060348,1.449147360884947101,2.9176792283827966857,-0.070100558804423452073,12.614671777209261586
0.1500000000000001,4.6664633146801411142,1.4590903880539853891,2.9176099523930972474,-0.06844422556752597538,12.614671777209261614
