t,phi1,v1,phi2,v2,energy
0.0,2.2849963129803927409,0.0,1.0175542942827369153,0.0,7.696708752447002136
0.001,2.2849930860232512142,-0.00645392279006979132,1.0175510849548972974,-0.006418643737534857474,7.6967087524470021416
0.002,2.284983405100784721,-0.01290794766366017802,1.0175414570430289395,-0.01283714417359805287,7.696708752447002152
0.003,2.2849672700598693536,-0.019362176700630301211,1.0175254107620862072,-0.019255358000961921202,7.696708752447002163
0.004,2.2849446806453047006,-0.025816711973516466567,1.0175029464703359708,-0.025673141900886729946,7.6967087524470021707
0.005,2.2849156364998230025,-0.0322716555438709095,1.0174740646693719944,-0.032090352537364490938,7.6967087524470021815
0.006,2.284880137164101964,-0.038727109458600780078,1.0174387660041350828,-0.038506846551362587338,7.6967087524470021854
0.007,2.2848381820767812316,-0.04518317574630742143,1.0173970512629389841,-0.044922480555067154405,7.696708752447002192
0.008,2.2847897705744825278,-0.05163995641362601565,1.01734892137750205,-0.051337111126126153222,7.6967087524470021997
0.009000000000000001,2.284734901891833448,-0.05809755344156567185,1.017294377422984652,-0.057750594801892076887,7.6967087524470022097
0.010000000000000002,2.2846735751614949163,-0.06455606878185003149,1.0172334206180323556,-0.0641627880736642293,7.6967087524470022193
0.011000000000000003,2.2846057894141923005,-0.07101560435325846678,1.0171660523248248531,-0.070573547380930517256,7.6967087524470022266
0.012000000000000004,2.2845315435787501856,-0.07747626203796794888,1.0170922740491306543,-0.07698272910560869712,7.6967087524470022344
0.013000000000000005,2.2844508364821308046,-0.083938143677895663255,1.0170120874403675355,-0.083390189566287018546,7.696708752447002242
0.014000000000000005,2.2843636668494761268,-0.09040135107104245072,1.0169254942916687496,-0.08979578501246420799,7.6967087524470022505
0.015000000000000006,2.2842700333041536021,-0.096865985967837153705,1.0168324965399549961,-0.09619937161878873636,7.6967087524470022613
0.016000000000000007,2.2841699343678055604,-0.10333215006748194836,1.0167330962660121517,-0.1026008054792973157,7.6967087524470022726
0.017000000000000008,2.2840633684604022648,-0.109799945014298744566,1.016627295694574763,-0.10899994260165257121,7.6967087524470022817
0.01800000000000001,2.283950333900298619,-0.11626947239407673714,1.0165150971944153023,-0.11539663890137983613,7.6967087524470022895
0.01900000000000001,2.283830828904294525,-0.12274083373042119289,1.016396503278439187,-0.12179075019610301814,7.6967087524470022965
0.02000000000000001,2.2837048515876988927,-0.12921413048110356011,1.0162715166037855634,-0.12818213219977948761,7.6967087524470023073
0.02100000000000001,2.283572399964397297,-0.13568946403441298824,1.0161401399719338562,-0.1345706405169339392,7.6967087524470023142
0.022000000000000013,2.2834334719469232852,-0.14216693570550934776,1.0160023763288160846,-0.14095613063689118021,7.696708752447002322
0.023000000000000013,2.2832880653465333278,-0.14864664673277784155,1.0158582287649349467,-0.1473384579280078005,7.6967087524470023277
0.024000000000000014,2.2831361778732854164,-0.15512869827418530163,1.0157077005154876714,-0.15371747763190268056,7.696708752447002337
0.025000000000000015,2.2829778071361213013,-0.16161319140363826669,1.0155507949604956426,-0.16009304485768629638,7.69670875244700234
0.026000000000000016,2.2828129506429523747,-0.16810022710734293835,1.0153875156249397927,-0.1664650145761887812,7.696708752447002348
0.027000000000000017,2.2826416058007491876,-0.17458990628016711599,1.0152178661789017693,-0.17283324161418670696,7.696708752447002356
0.028000000000000018,2.282463769915634608,-0.18108232972200421275,1.0150418504377108765,-0.17919758064862854943,7.6967087524470023663
0.02900000000000002,2.2822794401929806115,-0.18757759813413945731,1.0148594723620967904,-0.18555788620085880397,7.696708752447002376
0.03000000000000002,2.282088613737508706,-0.19407581211561838903,1.0146707360583480518,-0.19191401263084072068,7.6967087524470023897
0.03100000000000002,2.2818912875533939855,-0.20057707215961775654,1.0144756457784763365,-0.19826581413137763008,7.6967087524470023975
0.03200000000000002,2.2816874585443728135,-0.20708147864981893231,1.0142742059203865055,-0.20461314472233283305,7.696708752447002403
0.03300000000000002,2.28147712351385413,-0.21358913185678395926,1.014066421028052435,-0.21095585824484803105,7.696708752447002413
0.03400000000000002,2.2812602791650343802,-0.22010013193433434777,1.0138522957916986303,-0.21729380835556027536,7.6967087524470024166
0.035000000000000024,2.2810369221010160681,-0.22661457891593274488,1.0136318350479876216,-0.22362684852081741648,7.696708752447002425
0.036000000000000025,2.2808070488249299192,-0.2331325727110676006,1.0134050437802131474,-0.22995483201089203802,7.696708752447002435
0.037000000000000026,2.280570655740060663,-0.2396542131016409594,1.013171927118499122,-0.2362776118941938619,7.6967087524470024426
0.03800000000000003,2.2803277391499764252,-0.24617959973835950855,1.0129324903400043938,-0.24259504103148061441,7.6967087524470024535
0.03900000000000003,2.2800782952586617235,-0.25270883213712901801,1.0126867388691332923,-0.2489069720700673461,7.6967087524470024613
0.04000000000000003,2.279822320170654072,-0.2592420096754523108,1.0124346782777519664,-0.25521325743803420125,7.696708752447002471
0.04100000000000003,2.2795598098911841831,-0.26577923158883090597,1.0121763142854105162,-0.26151374933843263585,7.6967087524470024756
0.04200000000000003,2.2792907603263197662,-0.27232059696717048015,1.0119116527595709197,-0.267808299743490086,7.696708752447002485
0.04300000000000003,2.2790151672831129187,-0.27886620475119029773,1.0116406997158407546,-0.27409676038881309245,7.6967087524470024916
0.04400000000000003,2.2787330264697511068,-0.28541615372883676386,1.0113634613182127186,-0.28037898276758889,7.6967087524470024994
0.04500000000000003,2.2784443334957117295,-0.29197054253170125792,1.0110799438793099483,-0.28665481812478547347,7.6967087524470025094
0.046000000000000034,2.2781490838719202626,-0.29852946963144241015,1.010790153860637139,-0.29292411745135015655,7.696708752447002517
0.047000000000000035,2.277847273010911979,-0.30509303333621298778,1.0104940978728374668,-0.29918673147840664248,7.696708752447002525
0.048000000000000036,2.2775388962269972385,-0.31166133178709156195,1.0101917826759553146,-0.30544251067145062947,7.6967087524470025293
0.04900000000000004,2.2772239487364303444,-0.3182344629545191311,1.0098832151797048027,-0.31169130522454397723,7.696708752447002535
0.05000000000000004,2.276902425657581961,-0.32481252463474088066,1.0095684024437441257,-0.3179329650545074659,7.696708752447002544
0.05100000000000004,2.2765743220111150852,-0.33139561444625326454,1.0092473516779556985,-0.3241673397951121802,7.696708752447002549
0.05200000000000004,2.2762396327201645707,-0.33798382982625659808,1.0089200702427321106,-0.33039427879126955862,7.6967087524470025536
0.05300000000000004,2.2758983526105201949,-0.3445772680271133574,1.0085865656492678905,-0.33661363109322014824,7.696708752447002561
0.05400000000000004,2.2755504764108132648,-0.3511760261128123853,1.0082468455598570842,-0.34282524545072111288,7.696708752447002568
0.05500000000000004,2.2751959987527067566,-0.35778020095543920816,1.0079009177881966444,-0.34902897030723254365,7.6967087524470025753
0.05600000000000004,2.274834914171088981,-0.36438988923165267553,1.0075487902996956346,-0.35522465379410262735,7.696708752447002583
0.057000000000000044,2.2744672171042707685,-0.37100518741916813719,1.0071904712117902498,-0.36141214372475173128,7.6967087524470025935
0.058000000000000045,2.274092901894186169,-0.3776261917932473798,1.006825968794264652,-0.36759128758885546714,7.6967087524470026
0.059000000000000045,2.2737119627865966574,-0.3842529984231955502,1.006455291469577624,-0.3737619325465268022,7.696708752447002608
0.060000000000000046,2.2733243939312988385,-0.39088570316886529776,1.0060784478131950416,-0.3799239254224972892,7.6967087524470026135
0.06100000000000005,2.2729301893823356448,-0.39752440167716837516,1.0056954465539281646,-0.38607711270029749134,7.696708752447002621
0.06200000000000005,2.2725293430982110177,-0.40416918937859494214,1.0053062965742777473,-0.392221340516436684,7.6967087524470026248
0.06300000000000004,2.2721218489421080673,-0.41082016148374082292,1.0049110069107839713,-0.39835645465458191763,7.696708752447002633
0.06400000000000004,2.2717077006821106977,-0.4174774129798429745,1.0045095867543821979,-0.40448230053973653335,7.696708752447002638
0.06500000000000004,2.2712868919914286972,-0.42414103862732342956,1.0041020454507645422,-0.410598723232418225,7.696708752447002647
0.06600000000000004,2.2708594164486262752,-0.43081113295634198326,1.0036883925007472708,-0.4167055674228367483,7.696708752447002651
0.06700000000000005,2.2704252675378540464,-0.4374877902633579012,1.0032686375606440204,-0.4228026774250713812,7.6967087524470026603
0.06800000000000005,2.2699844386490844448,-0.4441711046077009311,1.0028427904426448396,-0.42888989717124824491,7.6967087524470026673
0.06900000000000005,2.269536923078350565,-0.45086116980815190856,1.0024108611152010539,-0.4349670702057176,7.6967087524470026738
0.07000000000000005,2.2690827140279884162,-0.4575580794395332537,1.0019728597034159524,-0.44103403967923123684,7.696708752447002679
0.07100000000000005,2.2686218046068825813,-0.46426192682930966278,1.0015287964894412977,-0.4470906483431200848,7.6967087524470026863
0.07200000000000005,2.2681541878307152696,-0.47097280505419930586,1.001078681912879658,-0.45313673854347216917,7.6967087524470026954
0.07300000000000005,2.2676798566222187534,-0.4776908069367958491,1.0006225265711925601,-0.459172152215311051,7.696708752447002705
0.07400000000000005,2.2671988038114311767,-0.48441602504220162762,1.0001603412201144652,-0.4651967308767748888,7.6967087524470027076
0.07500000000000005,2.2667110221359557266,-0.49114855167467230218,0.9996921367740725641,-0.47121031562329626687,7.6967087524470027137
0.07600000000000005,2.26621650424122315,-0.49788847887427334094,0.99921792430661239245,-0.47721274712178294103,7.69670875244700272
0.07700000000000005,2.2657152426807576128,-0.5046358984135486753,0.99873771505082926513,-0.48320386560479965582,7.696708752447002726
0.07800000000000006,2.2652072299164458808,-0.51139090179420188616,0.9982515203998055272,-0.48918351086475119483,7.696708752447002731
0.07900000000000006,2.264692458318809815,-0.5181535802437902864,0.9977593519070536224,-0.49515152224806682887,7.6967087524470027366
0.08000000000000006,2.2641709201672821639,-0.524924024712432271,0.99726122128696497533,-0.50110773864938633424,7.6967087524470027453
0.08100000000000006,2.2636426076504856443,-0.53170232586952831795,0.9967571404152646876,-0.50705199850574775674,7.696708752447002752
0.08200000000000006,2.2631075128665152922,-0.5384885741004960282,0.9962471213294720445,-0.51298413979077710364,7.696708752447002756
0.08300000000000006,2.2625656278232240731,-0.54528285950351960384,0.99573117622936683157,-0.51890400000888015156,7.6967087524470027627
0.08400000000000006,2.262016944438511733,-0.5520852718863141703,0.99520931747746145806,-0.52481141618943656163,7.696708752447002767
0.08500000000000006,2.2614614545406168805,-0.5588959007629053599,0.9946815575994788845,-0.5307062248809965019,7.69670875244700277
0.08600000000000006,2.260899149868412279,-0.5657148353504245796,0.9941479092848363533,-0.5365882621454799791,7.696708752447002777
0.08700000000000006,2.2603300220717033367,-0.57254216456592039764,0.9936083853871349178,-0.5424573635523790902,7.696708752447002783
0.08800000000000006,2.2597540627115297771,-0.57937797702318649234,0.9930629989246547676,-0.5483133641729634074,7.696708752447002786
0.08900000000000007,2.2591712632604704733,-0.58622236102960661346,0.9925117630808563471,-0.5541560985744887183,7.696708752447002794
0.09000000000000007,2.2585816151029514268,-0.5930754045830170196,0.9919546912048872639,-0.5599854008144093449,7.6967087524470027982
0.09100000000000007,2.257985109535556878,-0.5999371953685868615,0.9913917968120949817,-0.56580110443459427427,7.6967087524470028047
0.09200000000000007,2.257381737767343524,-0.6068078207557169932,0.9908230935845452965,-0.57160304245554733753,7.696708752447002812
0.09300000000000007,2.2567714909201578308,-0.6136873677949577,0.99024859537154658973,-0.5773910473706316788,7.69670875244700282
0.09400000000000007,2.2561543600289564158,-0.62057592321494584606,0.9896683161901798546,-0.58316495114029876206,7.6967087524470028234
0.09500000000000007,2.2555303360421294862,-0.6274735734193619504,0.98908227022583449173,-0.5889245851863221701,7.6967087524470028347
0.09600000000000007,2.2548994098218273052,-0.6343804044839077134,0.9884904718327498677,-0.5946697803860364535,7.69670875244700284
0.09700000000000007,2.2542615721442896767,-0.64129650215330452455,0.98789293553456263247,-0.6004003670665812945,7.696708752447002846
0.09800000000000007,2.2536168137001784154,-0.64822195183831349345,0.98728967602485978995,-0.6061161749991512554,7.696708752447002849
0.09900000000000007,2.2529651250949127889,-0.65515683861277755677,0.986680708167737516,-0.6118170333932513873,7.696708752447002856
0.10000000000000007,2.252306496849007904,-0.6621012472106862233,0.9860660469983657172,-0.6175027708909589794,7.6967087524470028607
0.10100000000000008,2.2516409193984160198,-0.6690552620232635322,0.98544570772355832524,-0.62317321556119173513,7.6967087524470028646
0.10200000000000008,2.2509683830948707586,-0.67601896709607980923,0.98481970572234931973,-0.62882819489398266734,7.696708752447002871
0.10300000000000008,2.2502888782062341927,-0.6829924461261878169,0.98418805654657447245,-0.63446753579476200926,7.6967087524470028763
0.10400000000000008,2.2496023949168467851,-0.6899757824592839061,0.98355077592145880597,-0.64009106457864644294,7.6967087524470028793
0.10500000000000008,2.2489089233278801538,-0.6969690590868947884,0.9829078797462097599,-0.64569860696473595435,7.6967087524470028832
0.10600000000000008,2.2482084534576926374,-0.7039723586435905597,0.9822593840946160552,-0.6512899880704186261,7.6967087524470028897
0.10700000000000008,2.247500975242187633,-0.71098576340422461666,0.9816053052156522509,-0.65686503240568368787,7.696708752447002893
0.10800000000000008,2.2467864785351746835,-0.718009355281201121,0.9809456595340889825,-0.66242356386744314706,7.696708752447002898
0.10900000000000008,2.2460649531087332796,-0.72504321582177067636,0.98028046365110887457,-0.66796540573386232754,7.6967087524470029027
0.11000000000000008,2.2453363886535793543,-0.7320874262053548978,0.9796097343449281188,-0.67349038065869965144,7.696708752447002905
0.11100000000000008,2.2446007747794344373,-0.73914206724090056197,0.97893348857142370656,-0.67899831066565600205,7.696708752447002908
0.11200000000000009,2.24385810101539744,-0.74620721936426404286,0.978251743464766308,-0.68448901714273401064,7.696708752447002912
0.11300000000000009,2.2431083568103190404,-0.75328296263562674655,0.9775645163380587861,-0.68996232083660761694,7.696708752447002916
0.11400000000000009,2.2423515315331786386,-0.76036937673694227443,0.97687182468398033616,-0.69541804184700225605,7.6967087524470029223
0.11500000000000009,2.2415876144734638452,-0.76746654096941605466,0.97617368617543624006,-0.70085599962108602974,7.696708752447002923
0.11600000000000009,2.240816594841552478,-0.77457453425101819596,0.97547011866621322285,-0.70627601294787222534,7.6967087524470029227
0.11700000000000009,2.2400384617690970261,-0.78169343511403033015,0.97476114019164040157,-0.7116778999526335495,7.696708752447002924
0.11800000000000009,2.2392532043094115503,-0.7888233217026272236,0.97404676896925581367,-0.71706147809132844874,7.6967087524470029275
0.11900000000000009,2.2384608114378609838,-0.79596427177049395066,0.97332702339947851325,-0.7224265641450398932,7.6967087524470029314
0.12000000000000009,2.237661272052252799,-0.80311636267847943634,0.9726019220662862214,-0.7277729742144270043,7.6967087524470029327
0.1210000000000001,2.2368545749732310017,-0.8102796713922871875,0.97187148373789851864,-0.73310052371418991203,7.6967087524470029353
0.1220000000000001,2.2360407089446724144,-0.81745427448020404774,0.9711357273674655664,-0.73840902736754822946,7.696708752447002937
0.1230000000000001,2.235219662634085213,-0.82464024811086782406,0.9703946720937623422,-0.74369829920073353944,7.6967087524470029396
0.1240000000000001,2.2343914246330096754,-0.8318376680510746455,0.969648337241888375,-0.74896815253749628996,7.6967087524470029383
0.12500000000000008,2.233555983457421103,-0.83904660966362693296,0.9688967423239729676,-0.7542183999936274985,7.696708752447002943
0.12600000000000008,2.2327133275481348717,-0.84626714790522286755,0.968139907039885888,-0.7594488534714956714,7.6967087524470029413
0.12700000000000009,2.2318634452712135762,-0.85349935732438826516,0.96737785127795351765,-0.7646593241545993456,7.6967087524470029426
0.12800000000000009,2.231006324918376216,-0.86074331205945177445,0.9666105951156804382,-0.7698496225021356645,7.6967087524470029457
0.1290000000000001,2.2301419547074093882,-0.86799908583656433395,0.96583815882047644174,-0.775019558243585404,7.6967087524470029444
0.1300000000000001,2.229270322782580436,-0.8752667519677638369,0.96506056285038894756,-0.7801689403733148651,7.6967087524470029457
0.1310000000000001,2.22839141721505251,-0.88254638334908596753,0.96427782785484080885,-0.78529757714519505694,7.6967087524470029452
0.1320000000000001,2.2275052260033014965,-0.8898380524587221885,0.9634899746753734907,-0.7904052760672385915,7.6967087524470029457
0.1330000000000001,2.2266117370735347611,-0.8971418313552258732,0.9626970243463956026,-0.79549184389625472003,7.696708752447002947
0.1340000000000001,2.2257109382801116646,-0.9044577916757675934,0.96189899809593676675,-0.80055708663252293756,7.69670875244700295
0.1350000000000001,2.2248028174059657964,-0.911786004634440587,0.9610959173464068028,-0.80560080951448558977,7.6967087524470029504
0.1360000000000001,2.2238873621630288785,-0.91912654102061744745,0.96028780371536021077,-0.8106228170134599156,7.6967087524470029504
0.1370000000000001,2.222964560192656286,-0.92647947119735909023,0.9594746790162659318,-0.81562291282836996104,7.696708752447002951
0.1380000000000001,2.222034399066054131,-0.9338448650998770704,0.95865656525928236723,-0.8206008998804988035,7.6967087524470029504
0.1390000000000001,2.2210968662847078601,-0.9412227922340503399,0.95783348465203763437,-0.8255565803082615253,7.696708752447002949
0.1400000000000001,2.2201519492808123037,-0.9486133216749975478,0.9570054596004150396,-0.83048975546199937887,7.696708752447002945
0.1410000000000001,2.2191996354177031283,-0.9560165220657060067,0.9561725127093437459,-0.83540022589879558485,7.6967087524470029465
0.1420000000000001,2.218239911990289627,-0.9634324616157184617,0.955334666783594614,-0.8402877913773132075,7.696708752447002945
0.1430000000000001,2.2172727662254887984,-0.97086120809987881615,0.9544919448285811938,-0.84515225085265555213,7.696708752447002942
0.1440000000000001,2.2162981852826606466,-0.97830282885713798545,0.95364437005116584495,-0.8499934024712495293,7.696708752447002938
0.1450000000000001,2.215316156254044646,-0.9857573907894210662,0.9527919658604709614,-0.85481104356575243167,7.696708752447002933
0.1460000000000001,2.2143266661651973078,-0.99322496036055702557,0.9519347558686952779,-0.85960497064998256893,7.6967087524470029353
0.1470000000000001,2.2133297019754307829,-1.0007056035952721323,0.9510727638919352335,-0.8643749794138742076,7.696708752447002933
0.1480000000000001,2.2123252505782524436,-1.0081993860782483686,0.9502060139510113679,-0.86912086471845726034,7.6967087524470029296
0.1490000000000001,2.2113132988018053696,-1.0157063729532480788,0.9493345302722997254,-0.87384242059086217005,7.6967087524470029236
