t,phi1,v1,phi2,v2,energy
0.0,0.6269456133336047676,0.0,3.952265410433472237,0.0,-9.129533437890389941
0.001,0.62694342614142971944,-0.0043743767601453915003,3.9522668149569987965,0.002809057158634027899,-9.129533437890389938
0.002,0.62693686461044419866,-0.008748662441181107959,3.9522710285882115642,0.005618235583447569055,-9.1295334378903899375
0.003,0.6269259288772662472,-0.013122765965657839763,3.9522780515090098206,0.008427656540651039183,-9.129533437890389936
0.004,0.626910619169589834,-0.017496596259448161841,3.952287884022559085,0.011237441296515023821,-9.129533437890389933
0.005,0.62689093580618070103,-0.02187006225341036008,3.9523005265532911879,0.014047711117396275631,-9.129533437890389928
0.006,0.6268668791968705448,-0.026243072885055718339,3.9523159796469043692,0.016858587269758807159,-9.129533437890389926
0.007,0.6268384498425495277,-0.030615537100220419025,3.9523342439703633923,0.019670191020188445281,-9.129533437890389923
0.008,0.62680564833515711455,-0.034987363854743209698,3.9523553203118996712,0.022482643635399214325,-9.129533437890389921
0.009000000000000001,0.62676847535767122866,-0.039358462116149987438,3.9523792095810113957,0.025296066382229916092,-9.1295334378903899184
0.010000000000000002,0.626726931684095719,-0.043728740865346452094,3.9524059128084636523,0.02811058052762927622,-9.129533437890389915
0.011000000000000003,0.6266810181794461301,-0.048098109098319978486,3.95243543114628852,0.03092630733862802792,-9.129533437890389915
0.012000000000000004,0.6266307357997337654,-0.052466475827851856796,3.9524677658677851316,0.0337433680822963059,-9.129533437890389913
0.013000000000000005,0.6265760855919480324,-0.05683375008524104899,3.9525029183675196868,0.03656188402568472519,-9.129533437890389913
0.014000000000000005,0.6265170686940370578,-0.061199840922040608087,3.9525408901613253944,0.03938197643574752196,-9.12953343789038991
0.015000000000000006,0.6264536863348865595,-0.06556465741180790545,3.95258168288630233,0.042203766579246135693,-9.129533437890389907
0.016000000000000007,0.6263859398342969611,-0.0699281086518698099,3.9526252983008171868,0.0450273757226316149,-9.129533437890389906
0.017000000000000008,0.6263138306029587331,-0.074290103765103960594,3.9526717382845028954,0.047852925131904231376,-9.129533437890389903
0.01800000000000001,0.62623736014242594426,-0.07865055190173727405,3.9527210048382580942,0.050680536072448691155,-9.129533437890389901
0.01900000000000001,0.62615653004508800566,-0.08300936224116282328,3.9527731000842464203,0.053510329808843333786,-9.129533437890389898
0.02000000000000001,0.62607134199413958783,-0.08736644399377622557,3.952828026265895596,0.056342427604641715033,-9.129533437890389898
0.02100000000000001,0.6259817977635486915,-0.091721706402832672345,3.9528857857478962821,0.059176950722124972042,-9.129533437890389896
0.022000000000000013,0.6258878992180228507,-0.096075058746325733024,3.952946381016200671,0.06201402042202337415,-9.129533437890389893
0.023000000000000013,0.6257896483129734451,-0.100426410338889061615,3.9530098146780207808,0.06485375796320546679,-9.1295334378903898916
0.024000000000000014,0.62568704709447809953,-0.10477567053372213243,3.9530760894618264256,0.06769628460233322057,-9.12953343789038989
0.025000000000000015,0.6255800976992411444,-0.10912274872454112826,3.9531452082173428207,0.070541721593481602485,-9.12953343789038989
0.026000000000000016,0.625468802354552113,-0.113467554347556101605,3.9532171739155477907,0.07339019018772099133,-9.129533437890389889
0.027000000000000017,0.62535316337824224767,-0.117809996883475526146,3.9532919896486685399,0.076241811632660864665,-9.129533437890389889
0.028000000000000018,0.62523318317863898705,-0.122149985859539352576,3.953369658630177946,0.07909670717195319047,-9.129533437890389886
0.02900000000000002,0.625108864254518406,-0.12648743085158167924,3.9534501841947903384,0.081954998044753962416,-9.129533437890389886
0.03000000000000002,0.6249802091950555771,-0.13082224148612414452,3.9535335697984567123,0.08481680548514132386,-9.129533437890389883
0.03100000000000002,0.6248472206797728236,-0.13515432744250114406,3.9536198190183593445,0.08768225072148873215,-9.12953343789038988
0.03200000000000002,0.62470990147848583,-0.13948359845501797219,3.9537089355529057531,0.090551454975791621623,-9.129533437890389877
0.03300000000000002,0.62456825445124757815,-0.14380996431514298204,3.953800923221721965,0.09342453946294603051,-9.129533437890389875
0.03400000000000002,0.6244222825482900734,-0.14813333487373485569,3.9538957859656450335,0.09630162538997766442,-9.129533437890389873
0.035000000000000024,0.62427198880996382583,-0.15245362004330607001,3.9539935278467147628,0.099182833955219876644,-9.129533437890389872
0.036000000000000025,0.62411737636667504895,-0.15677072980032363993,3.9540941530481645816,0.10206828634743905338,-9.12953343789038987
0.037000000000000026,0.62395844843882053904,-0.16108457418754821593,3.954197665874411517,0.10495810374490590011,-9.129533437890389869
0.03800000000000003,0.6237952083367201956,-0.16539506331641260695,3.9543040707510452112,0.10785240731441113412,-9.129533437890389867
0.03900000000000003,0.623627659460547143,-0.16970210736944079543,3.954413372224815926,0.110751318210224096626,-9.129533437890389867
0.04000000000000003,0.62345580530025541244,-0.17400561660270850524,3.9545255749636214748,0.113654957572992807205,-9.129533437890389863
0.04100000000000003,0.62327964943550514246,-0.17830550134834637755,3.9546406837564930293,0.116563446528583993085,-9.129533437890389863
0.04200000000000003,0.6230991955355852542,-0.18260167201708680435,3.9547587035135797295,0.11947690618686163492,-9.129533437890389859
0.04300000000000003,0.62291444735933355757,-0.18689403910085546271,3.9548796392661320466,0.12239545764040258141,-9.129533437890389856
0.04400000000000003,0.62272540875505424306,-0.19118251317540858696,3.9550034961664838249,0.12531922196314779524,-9.129533437890389853
0.04500000000000003,0.6225320836604327135,-0.19546700490301700902,3.9551302794880329454,0.12824832020898780383,-9.12953343789038985
0.046000000000000034,0.6223344761024477072,-0.19974742503519799123,3.9552599946252205404,0.13118287341028093936,-9.129533437890389848
0.047000000000000035,0.62213259019728066573,-0.20402368441549586791,3.9553926470935086906,0.13412300257630296422,-9.129533437890389846
0.048000000000000036,0.62192643015022229514,-0.208295693982312506,3.9555282425293565392,0.13706882869162668975,-9.129533437890389843
0.04900000000000004,0.6217160002555762727,-0.21256336477178858644,3.955666786690194749,0.14002047271443020857,-9.1295334378903898395
0.05000000000000004,0.62150130489656004546,-0.21682660792073670127,3.9558082854543982316,0.14297805557473237325,-9.129533437890389839
0.05100000000000004,0.62128234854520267034,-0.22108533466962725317,3.955952744821257074,0.14594169817255416724,-9.129533437890389836
0.05200000000000004,0.6210591357622396405,-0.22533945636562813587,3.9561001709109455918,0.14891152137600462711,-9.129533437890389834
0.05300000000000004,0.6208316711970046454,-0.2295888844656991656,3.956250569964489427,0.15188764601928998949,-9.129533437890389833
0.05400000000000004,0.62059995958731820846,-0.23383353053974222522,3.9564039483437306176,0.15487019290064474932,-9.129533437890389831
0.05500000000000004,0.6203640057593731466,-0.2380733062738080735,3.9565603125312905585,0.15785928278018333201,-9.129533437890389827
0.05600000000000004,0.62012381462761679353,-0.24230812347336076291,3.9567196691305307735,0.1608550363776710956,-9.129533437890389824
0.057000000000000044,0.6198793911946299304,-0.24653789406660059996,3.9568820248655114183,0.16385757437021339572,-9.129533437890389823
0.058000000000000045,0.61963074055100236294,-0.25076253010784657206,3.9570473865809474294,0.16686701738986146127,-9.1295334378903898204
0.059000000000000045,0.61937786787520508666,-0.2549819437809791553,3.9572157612421622384,0.16988348602113384509,-9.12953343789038982
0.060000000000000046,0.61912077843345897826,-0.25919604740294440668,3.9573871559350389641,0.17290710079845223124,-9.129533437890389816
0.06100000000000005,0.6188594775795999524,-0.26340475342732023418,3.957561577865968998,0.17593798220349039672,-9.1295334378903898135
0.06200000000000005,0.61859397075494052036,-0.2676079744479457267,3.957739034361797894,0.17897625066243514416,-9.1295334378903898135
0.06300000000000004,0.61832426348812768747,-0.27180562320261441556,3.9579195328697684736,0.18202202654315803916,-9.129533437890389809
0.06400000000000004,0.61805036139499712526,-0.27599761257683232599,3.9581030809574610614,0.18507543015229680515,-9.129533437890389807
0.06500000000000004,0.61777227017842355233,-0.28018385560764166764,3.9582896863127307512,0.18813658173224524763,-9.129533437890389806
0.06600000000000004,0.6174899956281672591,-0.28436426548751099846,3.95847935674364162,0.19120560145805059873,-9.129533437890389802
0.06700000000000005,0.61720354362071670816,-0.2885387555682926858,3.9586721001783977917,0.19428260943421719369,-9.129533437890389799
0.06800000000000005,0.6169129201191271431,-0.29270723936524847453,3.9588679246652712551,0.19736772569141541089,-9.1295334378903898
0.06900000000000005,0.6166181311728551382,-0.29686963056114395936,3.9590668383725263453,0.20046107018309482822,-9.129533437890389798
0.07000000000000005,0.6163191829175890181,-0.301025843010412745,3.959268849588340789,0.2035627627820005703,-9.129533437890389795
0.07100000000000005,0.61601608157507507807,-0.30517579074339106382,3.9594739667207232176,0.20667292327659184272,-9.129533437890389793
0.07200000000000005,0.61570883345293953503,-0.30931938797062360686,3.9596821982974270502,0.20979167136736167244,-9.129533437890389791
0.07300000000000005,0.61539744494450613574,-0.31345654908724130845,3.959893552965860644,0.21291912666305689622,-9.129533437890389789
0.07400000000000005,0.6150819225286093516,-0.3175871886774118114,3.960108039492993618,0.21605540867679746283,-9.12953343789038979
0.07500000000000005,0.61476227276940308635,-0.32171122151886332328,3.960325666765259242,0.21920063682209413902,-9.129533437890389786
0.07600000000000005,0.61443850231616482224,-0.32582856258748255857,3.9605464437884527946,0.22235493040876373336,-9.129533437890389785
0.07700000000000005,0.61411061790309513195,-0.32993912706198744663,3.9607703796876257835,0.2255184086387409784,-9.1295334378903897805
0.07800000000000006,0.6137786263491124792,-0.33404283032867526721,3.9609974837069759262,0.22869119060178623635,-9.129533437890389779
0.07900000000000006,0.61344253455764323414,-0.33813958798624686085,3.9612277652097327854,0.23187339527108822036,-9.129533437890389776
0.08000000000000006,0.6131023495164068251,-0.34222931585070754155,3.9614612336780389548,0.23506514149876095078,-9.129533437890389775
0.08100000000000006,0.6127580782971959521,-0.3463119299603453239,3.9616978987128266883,0.23826654801123419258,-9.129533437890389773
0.08200000000000006,0.6124097280556517822,-0.3503873465807870575,3.9619377700336898672,0.24147773340453664887,-9.129533437890389771
0.08300000000000006,0.61205730603103405025,-0.3544554822101330438,3.962180857478751195,0.24469881613947121397,-9.129533437890389769
0.08400000000000006,0.6117008195459859848,-0.35851625358417069106,3.9624271710045245137,0.24792991453668161863,-9.1295334378903897675
0.08500000000000006,0.61134027600629398125,-0.36256957768166774472,3.9626767206857721334,0.25117114677160983023,-9.129533437890389767
0.08600000000000006,0.61097568290064194175,-0.36661537172974561024,3.962929516715357063,0.25442263086934360116,-9.129533437890389767
0.08700000000000006,0.61060704780036020097,-0.37065355320933326562,3.9631855694040900335,0.25768448469935358963,-9.129533437890389765
0.08800000000000006,0.6102343783591689581,-0.37468403986070224044,3.9634448891805712039,0.26095682597011950904,-9.129533437890389765
0.08900000000000007,0.6098576823129161325,-0.37870674968908311732,3.963707486591026436,0.2642397722236447943,-9.1295334378903897615
0.09000000000000007,0.6094769674793095627,-0.38272160097036399007,3.9639733722991380303,0.26753344082985930675,-9.12953343789038976
0.09100000000000007,0.609092241757643465,-0.3867285122568712915,3.964242557085869805,0.2708379489809096327,-9.129533437890389757
0.09200000000000007,0.60870351312851907053,-0.39072740238323338163,3.9645150518492864127,0.2741534136853365645,-9.1295334378903897545
0.09300000000000007,0.6083107896535593567,-0.39471819047232726348,3.9647908676043667748,0.27747995176213938903,-9.129533437890389753
0.09400000000000007,0.60791407947511779037,-0.39870079594130877217,3.9650700154828115262,0.28081767983472664293,-9.129533437890389751
0.09500000000000007,0.6075133908159809994,-0.40267513850772655772,3.9653525067328443511,0.2841667143247530304,-9.12953343789038975
0.09600000000000007,0.60710873197906528755,-0.40664113819572015926,3.965638352719007101,0.2875271714458422367,-9.129533437890389749
0.09700000000000007,0.6067001113471069092,-0.41059871534230244308,3.9659275649219485767,0.29089916719719540716,-9.129533437890389747
0.09800000000000007,0.60628753738234601994,-0.4145477906037266527,3.9662201549382068639,0.29428281735708509989,-9.129533437890389746
0.09900000000000007,0.6058710186262042173,-0.41848828496193829298,3.9665161344799851016,0.29767823747623456005,-9.129533437890389744
0.10000000000000007,0.6054505636989555868,-0.42242011973111204503,3.9668155153749205765,0.301085542871082201,-9.129533437890389742
0.10100000000000008,0.60502618129939116917,-0.42634321656427388243,3.9671183095658470214,0.30450484861693121976,-9.129533437890389739
0.10200000000000008,0.60459788020447676225,-0.43025749746000853147,3.9674245291105500071,0.30793626954098431354,-9.129533437890389738
0.10300000000000008,0.6041656692690039728,-0.4341628847692523926,3.9677341861815153122,0.3113799202152635063,-9.129533437890389738
0.10400000000000008,0.60372955742523443334,-0.43805930120217201072,3.9680472930656701532,0.31483591494941513586,-9.129533437890389737
0.10500000000000008,0.60328955368253709616,-0.44194666983512815483,3.9683638621641171642,0.31830436778340009482,-9.1295334378903897354
0.10600000000000008,0.6028456671270185221,-0.4458249141177255393,3.9686839059918610092,0.32178539248006946243,-9.1295334378903897354
0.10700000000000008,0.6023979069211460757,-0.4496939578799481878,3.9690074371775275115,0.32527910251762570746,-9.129533437890389733
0.10800000000000008,0.60194628230336394274,-0.45355372533938041434,3.9693344684630751888,0.32878561108196968827,-9.129533437890389732
0.10900000000000008,0.6014908025877018836,-0.45740414110851336272,3.9696650127034990773,0.33230503105893371995,-9.129533437890389731
0.11000000000000008,0.60103147716337663775,-0.46124513020213701758,3.9699990828665267324,0.33583747502640102595,-9.1295334378903897285
0.11100000000000008,0.60056831549438589326,-0.46507661804481756793,3.9703366920323062924,0.33938305524631193677,-9.129533437890389728
0.11200000000000009,0.60010132711909473633,-0.46889853047845997215,3.970677853393086491,0.34294188365655724673,-9.129533437890389727
0.11300000000000009,0.5996305216498144958,-0.472710793769955543,3.971022580252888508,0.34651407186275918693,-9.129533437890389723
0.11400000000000009,0.5991559087723738979,-0.47651333461891433736,3.971370886027169545,0.3500997311299405214,-9.129533437890389721
0.11500000000000009,0.59867749824568244573,-0.48030608016548210294,3.9717227842424780138,0.35369897237408232267,-9.129533437890389719
0.11600000000000009,0.59819529990128594,-0.48408895799824150109,3.972078288536100226,0.35731190615357103237,-9.129533437890389717
0.11700000000000009,0.59770932364291405706,-0.4878618961621972904,3.972437412655698479,0.36093864266053546317,-9.129533437890389714
0.11800000000000009,0.59721957944601989857,-0.4916248231668451221,3.9728001704589404185,0.36457929171207444983,-9.129533437890389711
0.11900000000000009,0.5967260773573114319,-0.49537766799432356347,3.9731665759131195787,0.36823396274137590734,-9.12953343789038971
0.12000000000000009,0.59622882749427473677,-0.4991203601076489292,3.973536643094766985,0.37190276478872810856,-9.129533437890389708
0.1210000000000001,0.59572784004468897563,-0.50285282945903246664,3.9739103861892537163,0.37558580649242404414,-9.129533437890389707
0.1220000000000001,0.5952231252661330059,-0.5065750064982794037,3.9742878194903843165,0.37928319607955978307,-9.129533437890389704
0.1230000000000001,0.5947146934854835528,-0.5102868221812693313,3.9746689573999809547,0.38299504135672780456,-9.129533437890389703
0.1240000000000001,0.5942025550984048608,-0.51398820797851735715,3.9750538144274582227,0.38672144970060632797,-9.129533437890389702
0.12500000000000008,0.5936867205688297445,-0.51767909588381542707,3.9754424051893884745,0.39046252804844572097,-9.129533437890389699
0.12600000000000008,0.5931672004284319576,-0.5213594184229531761,3.9758347444090575986,0.39421838288845312354,-9.129533437890389699
0.12700000000000009,0.59264400527608980204,-0.52502910866251762957,3.9762308469160111237,0.3979891202500764802,-9.129533437890389698
0.12800000000000009,0.59211714577734089824,-0.52868810021877103884,3.9766307276455905623,0.40177484569418923035,-9.129533437890389698
0.1290000000000001,0.59158663266382803867,-0.53233632726660609516,3.977034401638459886,0.40557566430317696363,-9.129533437890389696
0.1300000000000001,0.5910524767327360477,-0.53597372454857772697,3.9774418840401220413,0.40939168067092740496,-9.129533437890389694
0.1310000000000001,0.59051468884621957195,-0.5396002273840106454,3.9778531901004254075,0.41322299889272515218,-9.129533437890389694
0.1320000000000001,0.58997327993082172566,-0.5432157716781817624,3.9782683351730601005,0.4170697225550526474,-9.129533437890389695
0.1330000000000001,0.5894282609768835162,-0.5468202939315765672,3.9786873347150440332,0.42093195472529892394,-9.129533437890389692
0.1340000000000001,0.58887964303794397694,-0.5504137312492185017,3.9791102042861986393,0.42480979794137772756,-9.129533437890389689
0.1350000000000001,0.58832743723013093456,-0.5539960213500703397,3.9795369595486141693,0.42870335420125667357,-9.129533437890389687
0.1360000000000001,0.5877716547315423394,-0.5575671025765065284,3.9799676162661044728,0.43261272495239916006,-9.129533437890389686
0.1370000000000001,0.58721230678161808863,-0.5611269139038554112,3.9804021903036511788,0.43653801108112081858,-9.1295334378903896825
0.1380000000000001,0.58664940468050227223,-0.56467539495001020834,3.980840697626837193,0.4404793129018623455,-9.129533437890389683
0.1390000000000001,0.5860829597883957746,-0.56821248598510758806,3.9812831543012694225,0.44443673014638061772,-9.129533437890389684
0.1400000000000001,0.5855129835248991641,-0.57173812794127261986,3.9817295764919906562,0.44841036195286005907,-9.1295334378903896825
0.1410000000000001,0.58493948736834580485,-0.57525226242242885735,3.9821799804628805152,0.45240030685494628574,-9.129533437890389679
0.1420000000000001,0.58436248285512512693,-0.5787548317141722547,3.9826343825760453998,0.45640666277070412126,-9.129533437890389678
0.1430000000000001,0.5837819815789959905,-0.5822457787937075772,3.9830927992911973551,0.4604295269915021344,-9.1295334378903896765
0.1440000000000001,0.5831979951903900832,-0.58572504733984592323,3.983555247165021789,0.46446899617082591634,-9.129533437890389673
0.1450000000000001,0.5826105353957052908,-0.58919258174306192937,3.9840217428505339669,0.46852516631302237694,-9.12953343789038967
0.1460000000000001,0.58201961395658898007,-0.59264832711560918877,3.9844923030964242156,0.47259813276197740252,-9.129533437890389669
0.1470000000000001,0.58142524268921113857,-0.5960922293016923641,3.9849669447463917766,0.47668799018972928192,-9.129533437890389667
0.1480000000000001,0.5808274334635273147,-0.59952423488769443705,3.9854456847384672378,0.48079483258502037093,-9.129533437890389665
0.1490000000000001,0.5802261982025313032,-0.60294429121245748666,3.9859285401043234888,0.48491875324178952892,-9.12953343789038966
