t,phi1,v1,phi2,v2,energy
0.0,2.0129197969371932508,0.0,1.3507783170758183022,0.0,6.253602617818576371
0.001,2.0129161020432575144,-0.0073897965333755242176,1.3507764444014337791,-0.003745334293885041236,6.2536026178185763792
0.002,2.0129050173094789095,-0.014779697009511999711,1.3507708264651313834,-0.0074904948850812581168,6.2536026178185763823
0.003,2.0128865425799434229,-0.022169805370829035488,1.3507614635274666793,-0.011235308066817238006,6.253602617818576384
0.004,2.0128606775947949345,-0.029560225559063735955,1.350748356022705745,-0.014979600124156772367,6.2536026178185763883
0.005,2.01282742199023607,-0.036951061514929898482,1.3507315045588353774,-0.01872319732991741064,6.253602617818576391
0.006,2.0127867752985293957,-0.044342417177777750677,1.3507109099175773796,-0.02246592594059015691,6.253602617818576398
0.007,2.0127387369479989496,-0.051734396485254407082,1.3506865730544069259,-0.02620761219226069135,6.253602617818576403
0.008,2.0126833062630321164,-0.05912710337296522475,1.3506584950985750072,-0.029948082296532499208,6.253602617818576411
0.009000000000000001,2.0126204824640818363,-0.06652064177413623696,1.3506266773531349492,-0.03368716243645229129,6.253602617818576417
0.010000000000000002,2.0125502646676691537,-0.073915115619277844124,1.3505911212949730062,-0.037424678762438101196,6.2536026178185764213
0.011000000000000003,2.0124726518863861,-0.081310628835849940396,1.3505518285748430246,-0.041160457388210445956,6.2536026178185764248
0.012000000000000004,2.0123876430288989107,-0.088707285347928654404,1.3505088010174051727,-0.044894324386726938717,6.2536026178185764287
0.013000000000000005,2.0122952368999515755,-0.09610518907587488179,1.3504620406212687353,-0.04862610578612074388,6.253602617818576432
0.014000000000000005,2.0121954322003697182,-0.103504443936004787,1.350411549559038967,-0.052355627565643267343,6.2536026178185764378
0.015000000000000006,2.012088227527064805,-0.11090515384026245114,1.3503573301773680006,-0.056082715651611477057,6.253602617818576444
0.016000000000000007,2.0119736213730386794,-0.118307422695894841984,1.350299384997009806,-0.05980719591336025156,6.2536026178185764425
0.017000000000000008,2.011851612127388422,-0.12571135440512928193,1.3502377167128791936,-0.06352889415920015715,6.2536026178185764447
0.01800000000000001,2.0117221980753115284,-0.13311705286485358867,1.3501723281941148579,-0.06724763613238105743,6.25360261781857645
0.01900000000000001,2.0115853773981114082,-0.14052462196629906263,1.3501032224841464528,-0.070963247507061962265,6.2536026178185764508
0.02000000000000001,2.0114411481732031998,-0.14793416559472649474,1.3500304028007656956,-0.07467555388428752686,6.2536026178185764516
0.02100000000000001,2.0112895083741198952,-0.15534578762911536679,1.3499538725362014901,-0.078384380787971615285,6.2536026178185764577
0.022000000000000013,2.0111304558705187756,-0.1627595919418564159,1.3498736352571990623,-0.08208955366088834695,6.253602617818576462
0.023000000000000013,2.0109639884281881525,-0.17017568239844773377,1.3497896947051031013,-0.085790897860671048876,6.2536026178185764625
0.024000000000000014,2.0107901037090544116,-0.17759416285719457017,1.3497020547959448971,-0.08948823865581954087,6.253602617818576463
0.025000000000000015,2.010608799271189353,-0.1850151371689130088,1.3496107196205334674,-0.0931814012217161857,6.2536026178185764616
0.026000000000000016,2.0104200725688178273,-0.1924387091766376831,1.3495156934445506626,-0.0968702106366511413,6.2536026178185764655
0.027000000000000017,2.0102239209523256613,-0.19986498271533369744,1.3494169807086502414,-0.10055449187785725733,6.253602617818576468
0.028000000000000018,2.01002034166826787,-0.2072940616116129188,1.3493145860285609071,-0.104234069817555063654,6.2536026178185764733
0.02900000000000002,2.0098093318593771492,-0.21472604968345480153,1.3492085141951932921,-0.10790876921900830466,6.2536026178185764755
0.03000000000000002,2.0095908885645726468,-0.22216105073993190734,1.349098770174750883,-0.11157841473259047857,6.2536026178185764764
0.03100000000000002,2.0093650087189690039,-0.22959916858094028053,1.3489853591088448731,-0.11524283089186284789,6.2536026178185764846
0.03200000000000002,2.0091316891538856637,-0.23704050699693483679,1.3488682863146129297,-0.11890184210966439323,6.2536026178185764885
0.03300000000000002,2.0088909265968564438,-0.24448516976866992243,1.3487475572848418671,-0.12255527267421418971,6.2536026178185764907
0.03400000000000002,2.0086427176716393642,-0.2519332606669451992,1.3486231776880942097,-0.12620294674522669226,6.253602617818576498
0.035000000000000024,2.0083870588982267256,-0.2593848834523570072,1.3484951533688386331,-0.12984468835004042345,6.253602617818576501
0.036000000000000025,2.0081239466928554362,-0.26684014187505535753,1.3483634903475842704,-0.13348032137976056505,6.253602617818576503
0.037000000000000026,2.0078533773680175762,-0.2742991396745067034,1.3482281948210188681,-0.13710966958541596263,6.2536026178185765067
0.03800000000000003,2.0075753471324711975,-0.281761980579262636,1.3480892731621507774,-0.14073255657413106051,6.2536026178185765046
0.03900000000000003,2.0072898520912513527,-0.28922876830673465036,1.347946731920454767,-0.14434880580531329304,6.2536026178185765085
0.04000000000000003,2.006996888245681344,-0.2966996065629751228,1.3478005778220216386,-0.14795824058685646692,6.253602617818576514
0.04100000000000003,2.0066964514933841892,-0.3041745990424646395,1.3476508177697116332,-0.15156068407136067827,6.253602617818576519
0.04200000000000003,2.0063885376282942982,-0.3116538494279058132,1.3474974588433116068,-0.155155959252369318,6.2536026178185765228
0.04300000000000003,2.0060731423406693507,-0.31913746139002372216,1.3473405082996959622,-0.15874388896062372797,6.25360261781857653
0.04400000000000003,2.0057502612171023702,-0.32662553858737310253,1.3471799735729913153,-0.16232429586033608138,6.253602617818576533
0.04500000000000003,2.005419889740533989,-0.33411818466615242294,1.3470158622747448802,-0.16589700244548107063,6.253602617818576538
0.046000000000000034,2.0050820232902648935,-0.34161550326002496571,1.3468481821940965531,-0.1694618310361069966,6.2536026178185765414
0.047000000000000035,2.0047366571419684464,-0.34911759798994703694,1.3466769412979546746,-0.17301860377466686467,6.2536026178185765427
0.048000000000000036,2.0043837864677034766,-0.35662457246400342423,1.3465021477311754508,-0.17656714262237010393,6.2536026178185765436
0.04900000000000004,2.00402340633592723,-0.36413653027725021656,1.3463238098167460128,-0.18010726935555553773,6.2536026178185765492
0.05000000000000004,2.0036555117115084723,-0.37165357501156509783,1.3461419360559710907,-0.18363880556208624603,6.253602617818576547
0.05100000000000004,2.003280097455740742,-0.37917581023550522127,1.3459565351286632834,-0.18716157263776697226,6.253602617818576552
0.05200000000000004,2.0028971583263557356,-0.38670333950417276817,1.3457676158933368982,-0.1906753917827847402,6.2536026178185765527
0.05300000000000004,2.0025066889775368286,-0.39423626635908829043,1.3455751873874053385,-0.1941800839981733599,6.253602617818576556
0.05400000000000004,2.0021086839599327165,-0.40177469432807193098,1.3453792588273820142,-0.19767547008230251488,6.253602617818576559
0.05500000000000004,2.0017031377206711716,-0.40931872692513261345,1.345179839609084751,-0.2011613706273921368,6.2536026178185765635
0.05600000000000004,2.0012900446033729054,-0.4168684676503652855,1.3449769393078436725,-0.20463760601605278874,6.2536026178185765666
0.057000000000000044,2.000869398848165532,-0.4244240199898562977,1.3447705676787125274,-0.2081039964178527923,6.2536026178185765687
0.058000000000000045,2.0004411945916976193,-0.43198548741559699262,1.3445607346566834377,-0.21156036178591284934,6.2536026178185765752
0.059000000000000045,2.0000054258671528245,-0.4395529733854055747,1.3443474503569050366,-0.21500652185352892468,6.2536026178185765804
0.060000000000000046,1.999562086604264102,-0.447126581342857326,1.3441307250749039702,-0.2184422961308241724,6.253602617818576583
0.06100000000000005,1.9991111706293279792,-0.4547064147172232263,1.3439105692868097314,-0.2218675039014307044,6.2536026178185765857
0.06200000000000005,1.9986526716652188865,-0.4622925769234170311,1.3436869936495827979,-0.22528196421920201738,6.253602617818576587
0.06300000000000004,1.9981865833314035384,-0.46988517136195085406,1.3434600090012460411,-0.22868549590495691146,6.253602617818576591
0.06400000000000004,1.9977128991439553528,-0.47748430141889929452,1.3432296263611193754,-0.23207791754325575184,6.253602617818576589
0.06500000000000004,1.9972316125155689043,-0.48509007046587214405,1.3429958569300576155,-0.23545904747920994307,6.2536026178185765935
0.06600000000000004,1.9967427167555743975,-0.49270258185999569827,1.3427587120906915048,-0.23882870381532550458,6.253602617818576592
0.06700000000000005,1.9962462050699521576,-0.50032193894390269463,1.3425182034076718862,-0.24218670440838165544,6.253602617818576594
0.06800000000000005,1.9957420705613471242,-0.5079482450457308871,1.3422743426279169737,-0.24553286686634533615,6.2536026178185765935
0.06900000000000005,1.9952303062290833449,-0.51558160347913026343,1.3420271416808626923,-0.2488670085453226161,6.2536026178185765965
0.07000000000000005,1.9947109049691784538,-0.5232221175432789003,1.3417766126787160474,-0.25218894654654795586,6.253602617818576597
0.07100000000000005,1.9941838595743581339,-0.5308698905229074453,1.3415227679167114857,-0.25549849771341231518,6.2536026178185765987
0.07200000000000005,1.9936491627340705475,-0.5385250256883322046,1.3412656198733702082,-0.25879547862853112002,6.2536026178185766004
0.07300000000000005,1.9931068070345007307,-0.54618762629549680727,1.3410051812107623944,-0.26207970561085312418,6.2536026178185766013
0.07400000000000005,1.9925567849585849419,-0.55385779558602240663,1.3407414647747722973,-0.26535099471281122473,6.2536026178185766004
0.07500000000000005,1.9919990888860249554,-0.56153563678726637086,1.3404744835953661662,-0.26860916171751631414,6.2536026178185765987
0.07600000000000005,1.9914337110933022926,-0.56922125311238940426,1.3402042508868629531,-0.27185402213599527702,6.253602617818576598
0.07700000000000005,1.9908606437536923813,-0.57691474776043103026,1.3399307800482077591,-0.27508539120447426368,6.253602617818576599
0.07800000000000006,1.9902798789372786357,-0.58461622391639335623,1.3396540846632479739,-0.27830308388170839974,6.2536026178185766004
0.07900000000000006,1.9896914086109664487,-0.59232578475133302996,1.3393741785010120625,-0.28150691484635911632,6.253602617818576602
0.08000000000000006,1.9890952246384970879,-0.60004353342246128614,1.3390910755159909499,-0.28469669849442031368,6.253602617818576604
0.08100000000000006,1.9884913187804614876,-0.60776957307325196706,1.3388047898484219544,-0.28787224893669459817,6.253602617818576605
0.08200000000000006,1.9878796826943139293,-0.615504006833557393,1.33851533582457522,-0.29103337999632086162,6.2536026178185766047
0.08300000000000006,1.9872603079343856015,-0.62324693781973194203,1.338222727957042594,-0.2941799052063545013,6.2536026178185766043
0.08400000000000006,1.9866331859518980331,-0.63099846913476318676,1.337926980945028898,-0.29731163780740160903,6.2536026178185766056
0.08500000000000006,1.9859983080949763913,-0.63875870386841042295,1.3376281096746455372,-0.3004283907453084882,6.2536026178185766047
0.08600000000000006,1.9853556656086626379,-0.64652774509735040827,1.337326129219206392,-0.30352997666890789072,6.253602617818576605
0.08700000000000006,1.9847052496349285354,-0.6543056958853301177,1.3370210548395259343,-0.30661620792782339634,6.253602617818576602
0.08800000000000006,1.9840470512126884987,-0.66209265928332630436,1.3367129019842195088,-0.30968689657033339192,6.2536026178185766
0.08900000000000007,1.9833810612778122818,-0.66988873832971164055,1.3364016862900057226,-0.31274185434129614164,6.2536026178185765995
0.09000000000000007,1.9827072706631374962,-0.67769403605042719717,1.3360874235820108749,-0.31578089268013747397,6.2536026178185766013
0.09100000000000007,1.9820256700984819541,-0.6855086554591610024,1.3357701298740753699,-0.31880382271890264824,6.253602617818576599
0.09200000000000007,1.9813362502106558299,-0.6933326995575324036,1.3354498213690620441,-0.3218104552803739993,6.253602617818576599
0.09300000000000007,1.9806390015234736338,-0.7011662713352819384,1.3351265144591663421,-0.32480060087625599747,6.253602617818576599
0.09400000000000007,1.9799339144577659937,-0.7090094737704664028,1.3348002257262282736,-0.32777406970542939964,6.2536026178185765987
0.09500000000000007,1.9792209793313912399,-0.71686240982965878374,1.3344709719420460798,-0.3307306716522762071,6.2536026178185765987
0.09600000000000007,1.9785001863592467862,-0.72472518246815270524,1.3341387700686915403,-0.33367021628507718644,6.2536026178185765965
0.09700000000000007,1.9777715256532803058,-0.7325978946301710161,1.3338036372588268444,-0.33659251285448375172,6.2536026178185765926
0.09800000000000007,1.9770349872225006964,-0.7404806492490781253,1.3334655908560229531,-0.33949737029206604965,6.2536026178185765917
0.09900000000000007,1.9762905609729888305,-0.74837354924759567096,1.3331246483950793734,-0.34238459720893913267,6.2536026178185765917
0.10000000000000007,1.9755382367079080894,-0.75627669753802108474,1.332780827602345267,-0.34525400189446915064,6.2536026178185765883
0.10100000000000008,1.974778004127514677,-0.76419019702244859126,1.3324341463960418128,-0.34810539231506153792,6.2536026178185765865
0.10200000000000008,1.9740098528291677119,-0.77211415059299215647,1.3320846228865857376,-0.35093857611303322033,6.2536026178185765818
0.10300000000000008,1.9732337723073390954,-0.7800486611320098767,1.3317322753769139339,-0.35375336060557091466,6.253602617818576577
0.10400000000000008,1.9724497519536231549,-0.78799383151232927193,1.3313771223628090729,-0.3565495527837776445,6.253602617818576574
0.10500000000000008,1.9716577810567460613,-0.7959497645974729209,1.3310191825332261283,-0.35932695931180964598,6.2536026178185765705
0.10600000000000008,1.9708578488025750217,-0.8039165632418838499,1.330658474770619716,-0.36208538652610589066,6.253602617818576566
0.10700000000000008,1.9700499442741272461,-0.8118943302911500566,1.3302950181512721572,-0.36482464043471250631,6.2536026178185765644
0.10800000000000008,1.9692340564515786913,-0.8198831685822275226,1.3299288319456221682,-0.36754452671670443168,6.2536026178185765622
0.10900000000000008,1.9684101742122725816,-0.82788318094366103743,1.3295599356185940796,-0.3702448507217066974,6.2536026178185765583
0.11000000000000008,1.9675782863307277116,-0.8358944701958021268,1.3291883488299274835,-0.37292541746951778496,6.2536026178185765557
0.11100000000000008,1.9667383814786465312,-0.84391713915102334456,1.3288140914345072043,-0.37558603164983757306,6.2536026178185765523
0.11200000000000009,1.9658904482249230198,-0.8519512906139281553,1.3284371834826934891,-0.37822649762210244399,6.2536026178185765466
0.11300000000000009,1.9650344750356503522,-0.8599970273815556015,1.3280576452206523081,-0.38084661941543018356,6.2536026178185765414
0.11400000000000009,1.9641704502741283637,-0.8680544522435789114,1.3276754970906856539,-0.3834462007286773735,6.2536026178185765392
0.11500000000000009,1.9632983622008708187,-0.8761236679824971707,1.3272907597315617258,-0.38602504493061204127,6.253602617818576536
0.11600000000000009,1.9624181989736124926,-0.88420477737381914077,1.3269034539788448834,-0.38858295506020439867,6.253602617818576531
0.11700000000000009,1.9615299486473160743,-0.8922978831862382702,1.3265136008652252486,-0.3911197338270385715,6.253602617818576529
0.11800000000000009,1.9606335991741788973,-0.9004030881817979043,1.326121221620847834,-0.39363518361184829275,6.253602617818576526
0.11900000000000009,1.9597291384036395121,-0.9085204951160456577,1.325726337673641073,-0.3961291064671796047,6.25360261781857652
0.12000000000000009,1.9588165540823841096,-0.91665020673817587275,1.3253289706496446221,-0.39860130411818369079,6.2536026178185765154
0.1210000000000001,1.9578958338543528083,-0.9247923257911590424,1.324929142373336304,-0.4010515779635430339,6.2536026178185765093
0.1220000000000001,1.9569669652607458199,-0.9329469550118570312,1.3245268748679580557,-0.40347972907653417742,6.253602617818576505
0.1230000000000001,1.9560299357400295061,-0.94111419713112288293,1.3241221903558407458,-0.40588555820623044507,6.2536026178185765015
0.1240000000000001,1.9550847326279423443,-0.94929415487388395353,1.3237151112587277161,-0.408268865778848059,6.253602617818576497
0.12500000000000008,1.9541313431575008198,-0.95748693095920706184,1.323305660198096905,-0.41062945189923918046,6.2536026178185764907
0.12600000000000008,1.9531697544590052614,-0.9656926281003442962,1.3228938599954814025,-0.41296711635253548358,6.2536026178185764846
0.12700000000000009,1.9521999535600456416,-0.9739113490047580675,1.3224797336727882844,-0.41528165860594596327,6.2536026178185764794
0.12800000000000009,1.9512219273855073635,-0.98214319637412393995,1.3220633044526155703,-0.4175728778107127685,6.2536026178185764738
0.1290000000000001,1.9502356627575770556,-0.99038827290430972075,1.3216445957585671461,-0.4198405728042289474,6.2536026178185764677
0.1300000000000001,1.9492411463957484006,-0.9986466812853292298,1.3212236312155654842,-0.42208454211232208526,6.2536026178185764603
0.1310000000000001,1.9482383649168280237,-1.0069185242012691114,1.3208004346501619976,-0.42430458395170791714,6.253602617818576454
0.1320000000000001,1.9472273048349414682,-1.0152039043301869921,1.3203750300908448516,-0.42650049623261809592,6.253602617818576448
0.1330000000000001,1.9462079525615392883,-1.023502924343979224,1.3199474417683440599,-0.42867207656160640218,6.253602617818576443
0.1340000000000001,1.9451802944054032894,-1.03181568690821639,1.3195176941159336842,-0.43081912224453778796,6.2536026178185764404
0.1350000000000001,1.9441443165726529506,-1.0401422946819446805,1.3190858117697309498,-0.4329414302897647551,6.253602617818576437
0.1360000000000001,1.943100005166752063,-1.0484828503174511847,1.3186518195689920902,-0.43503879741149568207,6.2536026178185764313
0.1370000000000001,1.9420473461885156225,-1.0568374564599910665,1.3182157425564047259,-0.43711102003335982675,6.2536026178185764226
0.1380000000000001,1.9409863255361170145,-1.0652062157474745292,1.3177776059783765765,-0.43915789429217385093,6.2536026178185764174
0.1390000000000001,1.9399169290050955327,-1.0735892308101113887,1.3173374352853203049,-0.44117921604191483282,6.25360261781857641
0.1400000000000001,1.9388391422883642761,-1.0819866042700110108,1.3168952561319342817,-0.44317478085790485735,6.2536026178185764018
0.1410000000000001,1.9377529509762184689,-1.0903984387407352798,1.3164510943774790586,-0.44514438404121240203,6.2536026178185763927
0.1420000000000001,1.9366583405563442517,-1.0988248368268021908,1.3160049760860493281,-0.44708782062327586396,6.253602617818576384
0.1430000000000001,1.9355552964138279953,-1.1072659011231375712,1.3155569275268411479,-0.4490048853707547098,6.253602617818576375
0.1440000000000001,1.9344438038311661898,-1.1157217342144723538,1.3151069751744141973,-0.45089537279061386472,6.253602617818576369
0.1450000000000001,1.9333238479882759641,-1.1241924386746827356,1.3146551457089488295,-0.4527590771354470985,6.253602617818576363
0.1460000000000001,1.9321954139625062952,-1.1326781170660704646,1.3142014660164976799,-0.45459579240904530943,6.253602617818576356
0.1470000000000001,1.9310584867286499696,-1.1411788719385804043,1.3137459631892315806,-0.45640531237221575463,6.253602617818576349
0.1480000000000001,1.9299130511589563573,-1.1496948058289524312,1.3132886645256795272,-0.45818743054885842665,6.2536026178185763398
0.1490000000000001,1.9287590920231450705,-1.1582260212598046207,1.3128295975309624383,-0.4599419402323059304,6.253602617818576328
