t,phi1,v1,phi2,v2,energy
0.0,4.0991509631640576927,0.0,0.8376033651021052018,0.0,4.7263739129291764737
0.001,4.0991553050695590547,0.00868381618850677816,0.83760403118769685216,0.0013321734623063518658,4.726373912929176473
0.002,4.099168330817177237,0.017367694604214210186,0.83760602945814478137,0.002664374268827424084,4.7263739129291764763
0.003,4.0991900405002485823,0.026051697462431391628,0.83760935995445749973,0.0039966297429463472694,4.7263739129291764793
0.004,4.0992204342743138396,0.034735886954683869486,0.8376140227449478047,0.0053289671663823826805,4.7263739129291764854
0.005,4.0992595123570884376,0.043420325236820788642,0.83762001792518070057,0.006661413758357263609,4.726373912929176498
0.006,4.0993072750284208607,0.052105074417120744712,0.837627345617900483,0.0079939966547594706714,4.7263739129291765014
0.007,4.0993637226302391285,0.06079019654439591485,0.8376360059729369871,0.009326742887305756655,4.726373912929176509
0.008,4.0994288555664853834,0.06947575359609404017,0.83764599916709099484,0.010659679362699240279,4.726373912929176513
0.009000000000000001,4.099502674303038574,0.078161807466397836606,0.83765732540399879874,0.011992832841783392989,4.7263739129291765196
0.010000000000000002,4.09958517936762524,0.086848419954321413944,0.8376699849139759175,0.013326229918691248386,4.726373912929176527
0.011000000000000003,4.09967637134971839,0.09553565275180328747,0.8376839779538399576,0.014659896999989170514,4.7263739129291765283
0.012000000000000004,4.0997762509004244693,0.10422356743179557065,0.83769930480671261653,0.015993860283814524678,4.7263739129291765344
0.013000000000000005,4.0998848187323584202,0.11291222543634894251,0.8377159657818008192,0.01732814573900660285,4.7263739129291765287
0.014000000000000005,4.100002075619506816,0.12160168806469298955,0.8377339612141569825,0.018662779084230165122,4.72637391292917653
0.015000000000000006,4.1001280223970790815,0.13029201646131152775,0.8377532914644183996,0.019997785767090968848,4.7263739129291765318
0.016000000000000007,4.1002626599613467826,0.13898327160401251734,0.83777395691852573473,0.021333190943242668456,4.7263739129291765357
0.017000000000000008,4.1004059892694709813,0.14767551429199219065,0.83779595798742062074,0.02266901945548448097,4.7263739129291765452
0.01800000000000001,4.1005580113393176552,0.15636880513389302095,0.83781929510672234945,0.024005295812849025432,4.7263739129291765504
0.01900000000000001,4.1007187272492611686,0.16506320453585516911,0.83784396873638364485,0.025342044169679758426,4.7263739129291765548
0.02000000000000001,4.100888138137975794,0.17375877268956105398,0.837869979360325508,0.026679288304697442871,4.726373912929176559
0.02100000000000001,4.101066245204215273,0.18245556956027270218,0.8378973274860511226,0.028017051600055103208,4.7263739129291765634
0.022000000000000013,4.101253049706580412,0.1911536548748615431,0.8379260136442388101,0.02935535702038093691,4.726373912929176562
0.023000000000000013,4.1014485529632747026,0.19985308810983032621,0.8379560383883140208,0.030694227091808670126,4.7263739129291765712
0.024000000000000014,4.1016527563518479617,0.20855392847932684892,0.83798740229400034933,0.032033683880994863888,4.726373912929176573
0.025000000000000015,4.101865661308927978,0.2172562349231491953,0.83802010595884956026,0.03337374897412269715,4.726373912929176582
0.026000000000000016,4.1020872693299401637,0.2259600660947421989,0.83805415000175061124,0.0347144434558917735,4.7263739129291765816
0.027000000000000017,4.102317581968815193,0.23466548034918485578,0.83808953506241765796,0.036055787888493519884,4.726373912929176585
0.028000000000000018,4.1025566008376846278,0.24337253573116842794,0.8381262618008570276,0.0373978022905717684,4.7263739129291765886
0.02900000000000002,4.1028043276065645152,0.25208128996296499144,0.83816433089681314546,0.03874050611616813557,4.7263739129291765916
0.03000000000000002,4.1030607640030269476,0.2607918004323861988,0.8382037430491933985,0.040083918233651837913,4.7263739129291765964
0.03100000000000002,4.103325911811859578,0.26950412418073204038,0.83824449897547192176,0.041428056904633608185,4.7263739129291766007
0.03200000000000002,4.1035997728747130786,0.27821831789072940623,0.8382865994110722897,0.042772939762863402806,4.7263739129291766064
0.03300000000000002,4.103882349089736532,0.28693443787446026549,0.83833004510872909755,0.044118583793111618414,4.7263739129291766085
0.03400000000000002,4.104173642411200747,0.29565254006127929942,0.83837483683782841533,0.045465005310033563667,4.7263739129291766137
0.035000000000000024,4.1044736548491094845,0.30437267998572084017,0.8384209753837270982,0.046812219937016961675,4.7263739129291766155
0.036000000000000025,4.104782388468798587,0.31309491277539498697,0.83846846154705093496,0.048160242585012288532,4.726373912929176622
0.037000000000000026,4.105099845390522998,0.32181929313887279055,0.8385172961429716195,0.04950908743134578464,4.7263739129291766233
0.03800000000000003,4.1054260277890316597,0.3305458753535604156,0.83856748000046252495,0.05085876789851500749,4.7263739129291766263
0.03900000000000003,4.105760937893130282,0.3392747132535622119,0.8386190139615332662,0.0522092966329668277,4.7263739129291766324
0.04000000000000003,4.1061045779852319675,0.34800586021753264482,0.83867189888044303036,0.053560685483857803977,4.7263739129291766363
0.04100000000000003,4.106456950400895681,0.35673936915651705869,0.83872613562289265957,0.054912945481796907892,4.726373912929176642
0.04200000000000003,4.106818057528352559,0.36547529250178126652,0.8387817250651954673,0.05626608681757060493,4.72637391292917665
0.04300000000000003,4.107187901808020038,0.3742136821926299846,0.8388386680934267711,0.057620118820850335496,4.7263739129291766554
0.04400000000000003,4.1075664857320037995,0.382954589664214151,0.838896965602552124,0.05897504993888247718,4.7263739129291766562
0.04500000000000003,4.107953811843587514,0.3916980658353271934,0.8389566184955342273,0.06033088771516090855,4.726373912929176661
0.046000000000000034,4.1083498827367103774,0.40044416109619033385,0.83901762768241850674,0.061687638768082334478,4.7263739129291766684
0.047000000000000035,4.1087547010554324282,0.40919292529622704438,0.83907999407939733627,0.06304530876958457367,4.7263739129291766758
0.048000000000000036,4.1091682694933876307,0.41794440773182679288,0.83914371860785289133,0.06440390242376805101,4.7263739129291766883
0.04900000000000004,4.10959059079322472,0.4266986571340982436,0.83920880219337861506,0.06576342344550077978,4.7263739129291766966
0.05000000000000004,4.1100216677460357927,0.43545572165661210505,0.8392752457647792818,0.067123874539007162484,4.7263739129291766996
0.05100000000000004,4.1104615031907726346,0.44421564886313384432,0.83934305025304964116,0.06848525737644098395,4.7263739129291767096
0.05200000000000004,4.110910100013650781,0.45297848571534651488,0.8394122165903316275,0.06984757257644301541,4.7263739129291767174
0.05300000000000004,4.11136746114754129,0.46174427856056397387,0.8394827457088501196,0.07121081968268369544,4.7263739129291767213
0.05400000000000004,4.1118335895713502243,0.47051307311943479393,0.83955463853982723553,0.072574997142391400495,4.726373912929176732
0.05500000000000004,4.112308488309385838,0.4792849144736372037,0.8396278960123751489,0.0739401022848668669,4.7263739129291767343
0.05600000000000004,4.1127921604307134456,0.48805984705356542227,0.8397025190523674128,0.07530613129998437509,4.7263739129291767373
0.057000000000000044,4.1132846090484979818,0.49683791462600778374,0.8397785085812887791,0.07667307921668035766,4.7263739129291767434
0.058000000000000045,4.113785837319334229,0.5056191602818170784,0.8398558655150634994,0.078040939881430143845,4.726373912929176746
0.059000000000000045,4.1142958484425647143,0.5144036264235735707,0.83993459076286209795,0.07940970593671360574,4.7263739129291767547
0.060000000000000046,4.1148146456595852665,0.52319135475324118597,0.84001468522588660455,0.08077936879947052449,4.7263739129291767556
0.06100000000000005,4.1153422322531382233,0.53198238625981739136,0.84009614979613423833,0.082149918639546549206,4.7263739129291767642
0.06200000000000005,4.1158786115465932904,0.54077676120697733,0.84017898535513953293,0.08352134435813067644,4.726373912929176763
0.06300000000000004,4.116423786903216036,0.5495745191207128024,0.8402631927726948955,0.084893633566185234256,4.72637391292917676
0.06400000000000004,4.116977761725424025,0.5583756987769667243,0.8403487729055495921,0.08626677256286941199,4.726373912929176768
0.06500000000000004,4.1175405394540305903,0.5671803381892637247,0.84043572659608715427,0.08764074631395743489,4.7263739129291767716
0.06600000000000004,4.1181121235674762225,0.575988474596337585,0.8405240546709812012,0.089015538430252541855,4.7263739129291767764
0.06700000000000005,4.1186925175810475954,0.584800144449756258,0.8406137579398296746,0.09039113114599798438,4.726373912929176783
0.06800000000000005,4.1192817250460842106,0.5936153834015452394,0.8407048371937674832,0.091767505297286325726,4.7263739129291767946
0.06900000000000005,4.1198797495491726673,0.602434226291810107,0.84079729320405755677,0.09314464030046838112,4.726373912929176806
0.07000000000000005,4.1204865947113285523,0.61125670713635907793,0.84089112672066030897,0.094522514130563202614,4.7263739129291768197
0.07100000000000005,4.121102264187165956,0.62008285911432647485,0.8409863384707815119,0.0959011032996705758,4.726373912929176824
0.07200000000000005,4.121726761664054609,0.6289127145557980319,0.8410829291573985843,0.09728038283538756026,4.7263739129291768306
0.07300000000000005,4.122360090861264649,0.63774630492943901064,0.8411808994577652997,0.098660326259230671055,4.7263739129291768327
0.07400000000000005,4.1230022555290990137,0.64658366083012613787,0.84128025002189491975,0.10004090556506536509,4.726373912929176834
0.07500000000000005,4.1236532594480134733,0.6554248119665844189,0.84138098147102176154,0.101422091197544563366,4.7263739129291768367
0.07600000000000005,4.124313106427724297,0.6642697871490299202,0.84148309439604120915,0.10280385203055800852,4.726373912929176843
0.07700000000000005,4.1249818003063035707,0.6731186142768196608,0.84158658935592817993,0.104186155345694325954,4.72637391292917684
0.07800000000000006,4.1256593449492621633,0.6819713203261097919,0.84169146687613406054,0.10556896681071772707,4.7263739129291768406
0.07900000000000006,4.1263457442486203616,0.6908279313375232899,0.84179772744696212787,0.106952250458061363894,4.726373912929176842
0.08000000000000006,4.1270410021219661734,0.69968847240382843234,0.8419053715219214724,0.10833596866333941598,4.7263739129291768536
0.08100000000000006,4.12774512251150132,0.7085529676576293689,0.8420143995160594435,0.10972008212388006334,4.7263739129291768523
0.08200000000000006,4.128458109383074919,0.71742144025907014825,0.84212481180427264005,0.11110454983728157244,4.726373912929176851
0.08300000000000006,4.129179966725204884,0.72629391238355360484,0.84223660871959646844,0.112489329079993796544,4.726373912929176861
0.08400000000000006,4.1299106985480870512,0.73517040520947655704,0.842349790551473297,0.11387437538592746691,4.726373912929176861
0.08500000000000006,4.1306503088825920465,0.7440509389059828155,0.8424643575439992335,0.115259642525093727275,4.7263739129291768596
0.08600000000000006,4.131398801779249916,0.75293553262073554736,0.84258030989414955904,0.116645082482276440656,4.726373912929176869
0.08700000000000006,4.132156181307222543,0.7618242044677105908,0.84269764774998285185,0.11803064543573987531,4.7263739129291768787
0.08800000000000006,4.1329224515532638666,0.7707169715150123618,0.84281637120882383675,0.119416279735974454686,4.726373912929176876
0.08900000000000007,4.1336976166206679238,0.77961384977271404523,0.8429364803154250016,0.1208019318844833357,4.7263739129291768783
0.09000000000000007,4.1344816806282047544,0.7885148541807238116,0.84305797506010702106,0.122187546512612659035,4.726373912929176877
0.09100000000000007,4.135274647709044177,0.79741999859667885047,0.84318085537687803403,0.12357306636042839633,4.726373912929176889
0.09200000000000007,4.136076522009667481,0.8063292957838690622,0.8433051211415318226,0.124958432255642799865,4.7263739129291769013
0.09300000000000007,4.1368873076887670505,0.81524275739919230195,0.84343077216972494323,0.12634358309259354295,4.726373912929176906
0.09400000000000007,4.1377070089161339657,0.8241603939811431192,0.843557808215032865,0.12772845581127872162,4.726373912929176912
0.09500000000000007,4.138535629871533608,0.8330822149378369899,0.84368622896698517176,0.12911298537645097158,4.7263739129291769195
0.09600000000000007,4.1393731747435693084,0.8420082285350720906,0.8438160340490798901,0.13049710475677403904,4.7263739129291769364
0.09700000000000007,4.1402196477285340805,0.85093844188443071503,0.8439472230167770055,0.13188074490404522785,4.726373912929176936
0.09800000000000007,4.1410750530292504664,0.85987286093142249006,0.84407979535547123635,0.13326383473248723188,4.7263739129291769472
0.09900000000000007,4.1419393948538985608,0.8688114904436715991,0.84421375047844413514,0.13464630109811294629,4.7263739129291769472
0.10000000000000007,4.142812677414832233,0.87775433399915027606,0.84434908772479559316,0.13602806877816693916,4.7263739129291769477
0.10100000000000008,4.143694904927383615,0.8867013939744608883,0.84448580635735482594,0.13740906045064735103,4.7263739129291769555
0.10200000000000008,4.1445860816086558926,0.89565267153316898183,0.8446239055605709231,0.13878919667391207829,4.7263739129291769576
0.10300000000000008,4.1454862116763044576,0.90460816661418971536,0.84476338443838304724,0.14016839586637318418,4.72637391292917696
0.10400000000000008,4.1463952993473064735,0.9135678779202301702,0.84490424201207037436,0.14154657428628356998,4.7263739129291769637
0.10500000000000008,4.147313348836718913,0.9225318029062900742,0.8450464772180818674,0.14292364601162002828,4.7263739129291769668
0.10600000000000008,4.148240364356425126,0.93149993776822353727,0.8451900889058459834,0.14429952292006688943,4.726373912929176981
0.10700000000000008,4.1491763501138700025,0.9404722774313644532,0.8453350758355604169,0.14567411466910456293,4.726373912929176987
0.10800000000000008,4.150121310310783791,0.9494488155392182777,0.84548143667596198516,0.14704732867620736537,4.7263739129291769923
0.10900000000000008,4.1510752491418946458,0.958429544442222952,0.84562917000207676833,0.14841907009915511774,4.7263739129291769915
0.11000000000000008,4.152038170793629968,0.96741445518658179895,0.84577827429295062,0.14978924181646308587,4.726373912929176998
0.11100000000000008,4.153010079442806621,0.9764035375031712754,0.84592874792936016833,0.1511577444079349295,4.7263739129291770075
0.11200000000000009,4.153990979255310089,0.98539677979652652443,0.8460805891915044344,0.15252447613534341667,4.7263739129291770075
0.11300000000000009,4.1549808743847626603,0.9943941691339077297,0.84623379625667719656,0.15388933292324375292,4.7263739129291770093
0.11400000000000009,4.155979768971180722,1.003395691234450332,0.84638836719692023627,0.15525220833992446627,4.726373912929177011
0.11500000000000009,4.1569876671396212464,1.0124013304584022284,0.84654429997665760666,0.15661299357850088165,4.726373912929177015
0.11600000000000009,4.1580045729988175584,1.0214110697964511329,0.84670159245031106703,0.15797157743815631108,4.7263739129291770223
0.11700000000000009,4.15903049063980448,1.0304248908591453388,0.846860242359896835,0.15932784630553617842,4.7263739129291770236
0.11800000000000009,4.160065424134532938,1.0394427738664111797,0.8470202473326038115,0.16068168413630039018,4.7263739129291770236
0.11900000000000009,4.161109377534474146,1.0484646976371705478,0.84718160487835343934,0.16203297243683935671,4.7263739129291770244
0.12000000000000009,4.162162354869213449,1.0574906395790618912,0.84734431238734136195,0.16338159024615916112,4.726373912929177027
0.1210000000000001,4.163224360145033945,1.0665205756782681639,0.84750836712756105393,0.16472741411794146516,4.7263739129291770374
0.1220000000000001,4.164295397343489993,1.0755544804894552731,0.84767376624230960215,0.16607031810278383518,4.7263739129291770383
0.1230000000000001,4.1653754704199707068,1.0845923271258246179,0.8478405067476758187,0.16741017373062626263,4.726373912929177045
0.1240000000000001,4.16646458330225357,1.093634087249283384,0.84800858553001087645,0.16874684999336974646,4.7263739129291770513
0.12500000000000008,4.167562739889048276,1.1026797310607363114,0.8481779993433816615,0.17008021332769289707,4.726373912929177057
0.12600000000000008,4.1686699440485309237,1.1117292272905027169,0.8483487448070070442,0.17141012759807261255,4.726373912929177056
0.12700000000000009,4.169786199616868693,1.1207825431888626138,0.84852081840267727463,0.17273645408001497061,4.726373912929177059
0.12800000000000009,4.1709115103967351356,1.1298396445167358271,0.84869421647215671767,0.17405905144350256978,4.726373912929177059
0.1290000000000001,4.1720458801558162106,1.1389004955364980697,0.84886893521457014536,0.17537777573666464482,4.7263739129291770574
0.1300000000000001,4.173189312625307206,1.1479650590029379997,0.84904497068377281384,0.17669248036967637124,4.7263739129291770617
0.1310000000000001,4.174341811498400692,1.1570332961543593409,0.8492223187857045573,0.17800301609889386436,4.7263739129291770713
0.1320000000000001,4.175503380428765649,1.1661051667038322099,0.84940097527572813637,0.17930923101123146658,4.7263739129291770747
0.1330000000000001,4.176674023029017922,1.1751806288305978507,0.8495809357559520893,0.18061097050878800586,4.7263739129291770747
0.1340000000000001,4.1778537428691821607,1.1842596391716310389,0.8497621956725383351,0.18190807729372879632,4.726373912929177077
0.1350000000000001,4.179042543475145401,1.1933421528133644771,0.84994475031299479047,0.18320039135343023884,4.726373912929177079
0.1360000000000001,4.1802404283271024556,1.2024281232835795597,0.8501285948034532653,0.18448774994589396625,4.726373912929177074
0.1370000000000001,4.1814474008579932763,1.2115175025434679497,0.8503137241059329098,0.18576998758543756294,4.726373912929177077
0.1380000000000001,4.182663464451932471,1.2206102409798684598,0.8505001330155894938,0.18704693602866897392,4.726373912929177082
0.1390000000000001,4.1838886224426311425,1.2297062873976837997,0.850687816157950805,0.18831842426075180151,4.7263739129291770812
0.1400000000000001,4.1851228781118112376,1.2388055890124817974,0.85087676798613846147,0.18958427848196877099,4.7263739129291770786
0.1410000000000001,4.186366234687612591,1.2479080914432857682,0.85106698277807643936,0.1908443220945907276,4.726373912929177079
0.1420000000000001,4.1876186953429928575,1.2570137387055587601,0.8512584546336866257,0.19209837569005860813,4.726373912929177078
0.1430000000000001,4.188880263194120525,1.2661224732043864563,0.8514511774720717124,0.19334625703648590929,4.726373912929177089
0.1440000000000001,4.190150941298761216,1.2752342357278635787,0.851645145028685757,0.19458778106648925264,4.726373912929177093
0.1450000000000001,4.1914307326546574733,1.2843489654406886843,0.8518403508524927402,0.19582275986535472286,4.7263739129291770895
0.1460000000000001,4.1927196401979022512,1.2934665998779723083,0.8520367883031134613,0.19705100265954773055,4.7263739129291770904
0.1470000000000001,4.194017666801306323,1.3025870749392634543,0.8522344505479611189,0.19827231580557422466,4.726373912929177084
0.1480000000000001,4.1953248152727598236,1.3117103248827994917,0.8524333305593659311,0.19948650277920115119,4.726373912929177087
0.1490000000000001,4.1966410883535881604,1.3208362823199845706,0.85263342111168915924,0.20069336416504412527,4.72637391292917709
0.1500000000000001,4.197966488716902515,1.329964878210101714,0.852834714778426907,0.20189269764653035178,4.7263739129291770886
0.1510000000000001,4.1993010189659451775,1.3390960418552638044,0.8530372039293040724,0.20308429799624489655,4.726373912929177088
